t_us,ads_ch1,ads_ch2,ax0,ay0,az0,gx0,gy0,gz0,ax1,ay1,az1,gx1,gy1,gz1,ax2,ay2,az2,gx2,gy2,gz2,dt0_us,dt1_us,dt2_us
417524856,6466985,6475732,13735,5023,6824,4294967230,4294967077,4294967232,10970,7438,10445,43,178,4294967268,14924,4294965182,7171,403,410,359,4294966713,4294966713,4294966713
417530834,6466394,6475309,13778,5052,6833,4294967209,4294967051,4294967236,10949,7405,10466,127,211,4294967257,14906,4294965168,7139,404,414,378,4294966727,4294966727,4294966727
417536856,6466309,6475150,13742,5070,6764,4294967217,4294967019,4294967250,10964,7331,10488,254,249,4294967221,14927,4294965237,7091,409,420,407,4294966713,4294966713,4294966713
417542842,6466151,6474725,13677,5037,6860,4294967230,4294967011,4294967252,10916,7347,10386,371,301,4294967189,14866,4294965139,7084,365,435,411,4294966719,4294966719,4294966719
417548834,6465555,6474001,13688,5021,6886,4294967268,4294967003,10,10918,7372,10375,501,333,4294967177,14904,4294965088,7134,359,404,376,4294966727,4294966727,4294966727
417554865,6465458,6473844,13633,5034,6831,4294967285,4294966984,4294967292,10924,7407,10297,539,388,4294967173,14948,4294965014,7310,404,345,370,4294966704,4294966704,4294966704
417560833,6465478,6473677,13624,5087,6839,14,4294966976,36,10939,7509,10234,564,429,4294967150,14945,4294965034,7209,428,350,349,4294966728,4294966728,4294966728
417566851,6465695,6473954,13623,5059,6844,47,4294966961,55,10973,7528,10303,542,452,4294967170,14995,4294965026,7153,414,303,277,4294966715,4294966715,4294966715
417572859,6465278,6473555,13585,5010,6837,63,4294966942,54,10957,7557,10341,560,468,4294967198,15002,4294965046,7125,429,261,254,4294966711,4294966711,4294966711
417578840,6465104,6473212,13602,5027,6829,57,4294966926,76,10989,7559,10534,568,417,4294967272,14971,4294965014,7195,352,202,223,4294966725,4294966725,4294966725
417584847,6464972,6472887,13585,5009,6880,67,4294966908,89,11072,7605,10601,611,296,10,14952,4294964980,7501,262,108,152,4294966715,4294966715,4294966715
417590847,6464877,6472815,13679,5090,6899,84,4294966897,126,11048,7609,10684,583,173,52,15031,4294964913,7568,231,4294967258,106,4294966720,4294966720,4294966720
417596867,6465012,6472939,13641,5097,6860,61,4294966815,149,11130,7649,10629,536,40,73,14973,4294964898,7428,271,4294967200,85,4294966708,4294966708,4294966708
417602849,6464860,6472884,13756,5016,6809,21,4294966755,162,11162,7584,10550,427,4294967229,53,14943,4294964943,7280,339,4294967211,56,4294966714,4294966714,4294966714
417608848,6464892,6473196,13829,5009,6972,13,4294966698,188,11263,7622,10486,370,4294967114,55,14960,4294964985,7310,375,4294967237,104,4294966720,4294966720,4294966720
417614850,6464893,6473024,13845,4967,6853,11,4294966645,164,11315,7606,10348,268,4294967095,70,14895,4294965071,7137,410,41,145,4294966714,4294966714,4294966714
417620837,6464758,6473057,13897,4949,6870,4294967263,4294966624,154,11317,7611,10418,213,4294967133,90,14838,4294965074,7114,368,170,243,4294966725,4294966725,4294966725
417626850,6464815,6473236,13993,4931,6843,4294967267,4294966600,98,11263,7554,10432,224,4294967091,86,14905,4294965078,7005,375,293,322,4294966717,4294966717,4294966717
417632860,6464865,6473232,14019,4845,6872,4294967225,4294966590,53,11345,7504,10368,177,4294967124,50,14957,4294964970,7188,394,334,399,4294966709,4294966709,4294966709
417638850,6465071,6473339,13940,4894,6965,4294967185,4294966580,19,11306,7453,10368,164,4294967234,75,14923,4294964990,7169,404,300,462,4294966715,4294966715,4294966715
417644867,6464872,6473065,14004,4800,6893,4294967135,4294966560,4294967267,11244,7427,10362,233,4294967252,51,14945,4294965005,7183,488,239,528,4294966705,4294966705,4294966705
417650831,6464857,6473080,13996,4902,6853,4294967127,4294966546,4294967245,11277,7464,10364,225,55,68,14998,4294965007,7246,570,236,567,4294966726,4294966726,4294966726
417656842,6464928,6473008,13984,4922,6762,4294967140,4294966537,4294967220,11170,7502,10340,232,189,66,14983,4294964991,7174,643,230,655,4294966723,4294966723,4294966723
417662842,6465368,6473387,13882,4882,6756,4294967184,4294966568,4294967227,11095,7493,10303,312,336,86,14989,4294965049,7132,642,232,671,4294966720,4294966720,4294966720
417668865,6465680,6473771,13814,4928,6716,4294967235,4294966603,4294967258,10966,7547,10235,420,419,88,14964,4294965091,7105,579,239,706,4294966711,4294966711,4294966711
417674856,6465170,6473317,13770,4951,6773,4294967288,4294966633,4294967261,10965,7513,10257,523,521,80,14940,4294965077,7110,502,280,719,4294966714,4294966714,4294966714
417680840,6464893,6472959,13724,5016,6767,20,4294966705,4294967271,10912,7491,10247,603,585,109,14874,4294965080,7109,488,340,726,4294966721,4294966721,4294966721
417686838,6465572,6473748,13753,5032,6740,41,4294966725,4294967292,10886,7524,10214,654,606,108,14842,4294965064,7217,472,360,672,4294966722,4294966722,4294966722
417692856,6465232,6473283,13709,5055,6698,38,4294966729,30,10795,7467,10162,682,608,82,14784,4294965098,7208,460,345,651,4294966712,4294966712,4294966712
417698853,6464438,6472533,13682,5003,6715,24,4294966712,12,10848,7483,10255,667,548,105,14824,4294965068,7272,452,345,585,4294966712,4294966712,4294966712
417704854,6464631,6472524,13649,5045,6710,11,4294966744,25,10853,7497,10194,645,492,123,14760,4294965084,7295,476,326,548,4294966712,4294966712,4294966712
417710849,6465078,6472937,13677,4996,6734,13,4294966792,31,10858,7537,10319,577,434,131,14745,4294965130,7171,428,333,499,4294966714,4294966714,4294966714
417716852,6464866,6472712,13705,4971,6629,8,4294966849,31,10852,7475,10430,557,321,163,14716,4294965095,7277,369,285,450,4294966713,4294966713,4294966713
417722833,6464432,6472426,13757,5005,6543,24,4294966878,37,10839,7459,10364,510,263,140,14712,4294965183,7309,353,308,432,4294966728,4294966728,4294966728
417728836,6464737,6472678,13731,4973,6710,21,4294966933,53,10867,7461,10492,498,206,133,14699,4294965210,7298,318,298,438,4294966725,4294966725,4294966725
417734843,6464859,6472742,13757,4994,6725,16,4294966971,32,10841,7393,10496,544,150,114,14618,4294965230,7382,328,335,455,4294966718,4294966718,4294966718
417740828,6465000,6473085,13785,4969,6700,18,4294966997,63,10829,7425,10423,574,180,106,14565,4294965220,7248,378,366,455,4294966729,4294966729,4294966729
417746832,6465407,6473379,13741,5003,6694,13,4294967052,59,10923,7483,10375,602,234,84,14580,4294965203,7238,407,419,481,4294966726,4294966726,4294966726
417752846,6465073,6473047,13852,5056,6679,9,4294967086,46,10937,7487,10455,661,299,89,14615,4294965187,7191,397,453,507,4294966716,4294966716,4294966716
417758843,6464885,6472907,13874,5062,6743,4294967279,4294967113,66,10924,7561,10358,713,411,68,14644,4294965163,7235,338,522,531,4294966722,4294966722,4294966722
417764837,6465065,6473409,13820,5088,6635,4294967272,4294967121,89,10989,7550,10372,821,438,84,14739,4294965110,7207,256,500,569,4294966723,4294966723,4294966723
417770835,6464938,6473153,13841,5134,6697,4294967261,4294967114,94,11033,7568,10401,901,509,79,14810,4294965068,7196,142,441,591,4294966726,4294966726,4294966726
417776831,6464770,6473121,13811,5148,6745,4294967226,4294967076,112,11030,7602,10465,1015,482,84,14783,4294965094,7263,5,391,600,4294966726,4294966726,4294966726
417782853,6464613,6472875,13813,5142,6792,4294967194,4294966991,117,11052,7534,10424,1092,495,92,14809,4294965059,7208,4294967205,378,635,4294966718,4294966718,4294966718
417788831,6464831,6472929,13822,5092,6808,4294967149,4294966878,100,11083,7550,10333,1123,522,111,14869,4294965078,7233,4294967161,394,634,4294966729,4294966729,4294966729
417794843,6464652,6472505,13827,5064,6826,4294967129,4294966777,130,11067,7524,10328,1122,549,121,14872,4294965070,7214,4294967181,396,661,4294966719,4294966719,4294966719
417800841,6464591,6472307,13901,5080,6777,4294967088,4294966685,133,11083,7567,10296,1122,611,123,14783,4294965065,7355,4294967203,452,702,4294966719,4294966719,4294966719
417806849,6464515,6472099,13807,5036,6725,4294967090,4294966637,103,11077,7660,10467,1088,624,143,14845,4294965092,7335,4294967211,515,758,4294966717,4294966717,4294966717
417812858,6464348,6472115,13856,5025,6798,4294967061,4294966544,89,11040,7682,10464,967,599,176,14763,4294965086,7252,4294967213,574,831,4294966710,4294966710,4294966710
417818858,6464526,6472260,13848,4991,6772,4294967049,4294966528,107,10995,7658,10572,923,586,191,14831,4294965100,7149,4294967154,641,857,4294966709,4294966709,4294966709
417824839,6464718,6472373,13872,4975,6736,4294967009,4294966520,101,10964,7681,10518,912,550,204,14840,4294965058,7236,4294967071,714,840,4294966724,4294966724,4294966724
417830850,6464964,6472753,13875,4953,6767,4294967028,4294966480,127,10901,7659,10526,923,530,211,14837,4294965059,7341,4294967025,797,896,4294966717,4294966717,4294966717
417836835,6464269,6471984,13926,4930,6718,4294967048,4294966505,132,10931,7720,10458,907,557,252,14819,4294965103,7272,4294967030,830,950,4294966725,4294966725,4294966725
417842854,6464464,6472166,13912,4906,6707,4294967100,4294966519,190,10839,7687,10418,984,579,257,14791,4294965154,7268,4294967040,850,943,4294966714,4294966714,4294966714
417848831,6464589,6472148,13910,4907,6655,4294967161,4294966560,250,10801,7647,10414,1028,616,248,14714,4294965217,7343,4294966917,894,980,4294966729,4294966729,4294966729
417854834,6464663,6472057,13885,4921,6560,4294967176,4294966647,256,10865,7663,10476,1141,668,244,14689,4294965216,7293,4294966895,937,952,4294966726,4294966726,4294966726
417860855,6464358,6471883,13819,5026,6627,4294967188,4294966675,296,10867,7689,10366,1214,721,241,14662,4294965241,7335,4294966906,952,982,4294966711,4294966711,4294966711
417866842,6464426,6472087,13822,5000,6597,4294967155,4294966750,327,10813,7661,10380,1280,734,217,14682,4294965156,7209,4294966953,1037,1006,4294966720,4294966720,4294966720
417872864,6464407,6471919,13840,5060,6584,4294967142,4294966797,325,10725,7639,10423,1300,743,180,14697,4294965121,7197,4294966906,1116,1006,4294966705,4294966705,4294966705
417878837,6464513,6471829,13861,5021,6611,4294967086,4294966804,371,10805,7671,10423,1281,735,152,14755,4294965098,7088,4294966742,1127,966,4294966725,4294966725,4294966725
417884855,6464598,6472935,13821,4999,6699,4294967046,4294966807,380,10766,7677,10322,1306,709,123,14838,4294964934,7157,4294966606,1131,915,4294966711,4294966711,4294966711
417890858,6464816,6473224,13795,4981,6617,4294967021,4294966760,400,10815,7692,10399,1295,664,101,14783,4294964898,7225,4294966600,1122,859,4294966710,4294966710,4294966710
417896833,6465829,6474130,13845,5020,6685,4294967034,4294966725,388,10810,7701,10484,1214,579,77,14691,4294964814,7253,4294966574,1062,808,4294966728,4294966728,4294966728
417902836,6466981,6475240,13806,4959,6658,4294966974,4294966676,417,10831,7634,10478,1118,472,53,14657,4294964682,7292,4294966538,1053,789,4294966726,4294966726,4294966726
417908843,6470413,6477610,13841,4991,6654,4294966955,4294966617,392,10919,7659,10421,948,420,11,14531,4294964671,7269,4294966625,963,707,4294966717,4294966717,4294966717
417914846,6471753,6480466,13817,4873,6681,4294966907,4294966544,406,10883,7583,10383,937,357,53,14393,4294964600,7430,4294966717,1090,749,4294966718,4294966718,4294966718
417920859,6467890,6476333,13868,4854,6660,4294966856,4294966491,400,10928,7466,10405,804,277,1,14256,4294964816,7301,4294967046,1313,743,4294966709,4294966709,4294966709
417926851,6463447,6469855,13877,4808,6748,4294966824,4294966422,360,10822,7402,10408,710,172,4294967278,14173,4294965120,7029,4294966735,1495,657,4294966716,4294966716,4294966716
417932839,6461147,6468182,13884,4746,6605,4294966753,4294966391,341,10840,7464,10485,649,147,4294967286,14129,4294965342,6792,4294966540,1866,730,4294966725,4294966725,4294966725
417938859,6460834,6470211,14024,4688,6554,4294966705,4294966376,295,10702,7603,10534,710,96,4294967269,14262,4294965381,6471,4294966331,2463,963,4294966708,4294966708,4294966708
417944848,6461569,6470263,14050,4607,6452,4294966706,4294966375,246,10619,7669,10385,830,164,4294967278,14326,4294965381,6244,4294966004,2970,1106,4294966715,4294966715,4294966715
417950847,6462827,6470708,14010,4603,6505,4294966689,4294966395,216,10579,7917,10311,833,263,4294967295,14470,4294965227,6463,4294965748,3157,1126,4294966717,4294966717,4294966717
417956840,6463784,6471812,14023,4601,6484,4294966724,4294966455,177,10558,7901,10308,706,329,28,14665,4294965114,6709,4294965534,3189,1156,4294966717,4294966717,4294966717
417962848,6464530,6472127,14032,4667,6384,4294966722,4294966574,155,10524,7958,10444,976,402,124,14768,4294964925,6834,4294965038,2950,1067,4294966719,4294966719,4294966719
417968845,6464772,6472343,14018,4699,6519,4294966770,4294966721,150,10647,7936,10156,897,459,51,14853,4294964587,7259,4294964915,2582,1077,4294966719,4294966719,4294966719
417974854,6464960,6472523,13910,4799,6604,4294966784,4294966853,161,10905,7841,9919,1064,560,74,14883,4294964378,7774,4294964997,1995,986,4294966712,4294966712,4294966712
417980858,6465164,6472978,13828,4818,6673,4294966804,4294967010,192,10952,7807,9927,1185,567,27,15160,4294964332,7735,4294965117,1461,826,4294966712,4294966712,4294966712
417986835,6465194,6472808,13801,4933,6691,4294966782,4294967088,220,11193,7622,9985,1092,494,4294967281,15095,4294964309,7764,4294965209,1154,859,4294966726,4294966726,4294966726
417992844,6465119,6472857,13729,4970,6664,4294966738,4294967116,225,11206,7783,10102,1251,345,4294967290,15095,4294964316,7818,4294965337,773,650,4294966718,4294966718,4294966718
417998836,6465366,6473199,13797,5023,6733,4294966687,4294967078,274,11361,7707,10379,1165,106,4294967249,15222,4294964224,7852,4294965566,724,677,4294966725,4294966725,4294966725
418004858,6465708,6473653,13948,5074,6634,4294966703,4294966918,362,11370,7778,10441,1422,23,4294967244,15218,4294963939,7993,4294965909,656,605,4294966711,4294966711,4294966711
418010843,6465395,6473227,13992,5041,6543,4294966743,4294966684,476,11343,7722,10475,1296,4294967184,4294967193,15151,4294964015,8188,4294966389,692,499,4294966722,4294966722,4294966722
418016850,6464983,6472865,14205,5028,6438,4294966813,4294966531,551,11439,7863,10330,1253,4294967115,4294967248,15095,4294964003,8173,4294966676,796,406,4294966713,4294966713,4294966713
418022848,6464902,6472813,14201,4946,6380,4294966885,4294966452,587,11337,7985,10154,937,4294966961,4294967155,15079,4294963937,8078,4294966898,872,351,4294966713,4294966713,4294966713
418028848,6464964,6472929,14235,4872,6344,4294966960,4294966501,619,11523,7926,10003,758,4294966909,4294967192,15099,4294963993,7908,4294967123,1143,388,4294966720,4294966720,4294966720
418034843,6464802,6472773,14251,4769,6221,4294966991,4294966607,626,11319,8125,10117,446,4294966827,4294967228,15044,4294964035,7887,4294967272,1269,370,4294966716,4294966716,4294966716
418040848,6464825,6472720,14173,4720,6288,4294967043,4294966754,598,11394,8012,9850,679,4294966772,4294967121,15108,4294963903,7864,171,1374,453,4294966714,4294966714,4294966714
418046853,6465123,6473057,14182,4697,6322,4294967016,4294966848,544,11393,8034,9935,620,4294966860,4294967126,15182,4294964038,7913,318,1483,518,4294966711,4294966711,4294966711
418052843,6465175,6473243,14094,4739,6366,4294966957,4294966922,508,11312,8051,10018,642,4294966874,4294967132,15194,4294964023,7824,251,1561,560,4294966722,4294966722,4294966722
418058859,6465008,6473264,14048,4733,6365,4294966916,4294966929,473,11268,8018,10030,673,4294966841,4294967104,15092,4294963884,7835,348,1453,452,4294966710,4294966710,4294966710
418064857,6465842,6474019,13975,4695,6463,4294966907,4294966904,418,11393,8055,9880,616,4294966755,4294967063,15094,4294963954,7825,330,1365,485,4294966712,4294966712,4294966712
418070861,6465620,6473884,13955,4658,6501,4294966903,4294966823,391,11585,8040,9863,687,4294966887,4294967175,15024,4294964125,7764,374,1189,508,4294966711,4294966711,4294966711
418076861,6465926,6474282,13959,4643,6506,4294966977,4294966671,388,11475,8116,9806,838,4294966878,4294967262,15041,4294964015,7898,302,1215,551,4294966709,4294966709,4294966709
418082843,6465996,6474537,13939,4769,6610,4294967008,4294966528,362,11521,8064,9840,868,4294966927,34,14821,4294964193,7775,489,1120,593,4294966719,4294966719,4294966719
418088853,6466167,6474774,14083,4621,6634,4294967051,4294966372,318,11481,8043,9876,845,4294967033,131,14589,4294964146,7719,540,1177,702,4294966711,4294966711,4294966711
418094831,6466286,6474512,14125,4601,6601,4294967106,4294966255,289,11452,8062,9804,831,4294967099,182,14612,4294964082,7596,758,1135,730,4294966729,4294966729,4294966729
418100842,6465990,6474232,14178,4607,6609,4294967154,4294966183,250,11393,8092,9853,755,4294967227,260,14682,4294964077,7488,752,1207,830,4294966720,4294966720,4294966720
418106847,6466487,6474773,14195,4516,6532,4294967148,4294966138,213,11311,7993,9815,704,39,312,14526,4294964059,7558,847,1193,892,4294966715,4294966715,4294966715
418112850,6466846,6475230,14146,4511,6505,4294967159,4294966130,267,11293,7970,9863,600,111,368,14545,4294964090,7576,761,1231,965,4294966715,4294966715,4294966715
418118860,6466907,6475281,14242,4547,6407,4294967186,4294966234,212,11173,7895,9939,595,167,436,14371,4294964050,7652,735,1205,1006,4294966709,4294966709,4294966709
418124850,6467142,6475473,14171,4475,6329,4294967257,4294966359,205,11119,7981,9863,524,196,457,14435,4294964130,7589,712,1156,997,4294966719,4294966719,4294966719
418130857,6466920,6475613,14150,4516,6251,1,4294966501,190,11086,7900,9813,436,252,464,14331,4294964101,7558,653,1161,1024,4294966713,4294966713,4294966713
418136863,6467070,6475632,14102,4604,6272,20,4294966641,163,11066,7826,9675,440,275,467,14416,4294964197,7601,664,1152,1081,4294966708,4294966708,4294966708
418142844,6467223,6475793,14068,4557,6192,14,4294966782,118,11058,7831,9718,430,338,492,14368,4294964316,7594,373,1187,1058,4294966720,4294966720,4294966720
418148839,6467283,6476096,13980,4599,6182,4294967265,4294966902,70,10943,7876,9671,410,295,459,14250,4294964297,7699,296,1280,1103,4294966720,4294966720,4294966720
418154861,6466995,6475742,13975,4624,6223,4294967259,4294966984,43,10963,7797,9743,447,284,421,14383,4294964182,7726,331,1312,1140,4294966710,4294966710,4294966710
418160857,6466496,6475090,13897,4683,6201,4294967242,4294967049,14,10919,7824,9771,575,293,410,14319,4294964188,7701,453,1285,1121,4294966708,4294966708,4294966708
418166841,6466125,6474726,13866,4663,6249,4294967198,4294967051,4294967286,10858,7831,9825,642,332,406,14392,4294964372,7721,282,1312,1062,4294966724,4294966724,4294966724
418172845,6465793,6474089,13928,4671,6284,4294967199,4294967034,4294967294,10853,7897,9904,592,324,352,14227,4294964160,7858,213,1330,1039,4294966716,4294966716,4294966716
418178838,6465620,6473642,13963,4639,6255,4294967207,4294966985,4294967281,10806,7871,9892,676,312,309,14276,4294964365,7802,158,1143,886,4294966723,4294966723,4294966723
418184839,6465297,6473350,13973,4730,6234,4294967208,4294966972,6,10805,7814,9848,604,393,259,14364,4294964317,7824,73,916,744,4294966720,4294966720,4294966720
418190844,6465229,6473138,14056,4653,6225,4294967246,4294967005,27,10800,7848,9799,620,471,223,14512,4294964327,7728,4294967076,804,686,4294966717,4294966717,4294966717
418196853,6465316,6473196,14167,4637,6293,4294967292,4294967027,36,10817,7835,9809,524,500,180,14488,4294964446,7731,4294966887,811,638,4294966712,4294966712,4294966712
418202850,6465160,6472714,14166,4580,6386,27,4294967097,58,10799,7759,9720,512,570,100,14407,4294964071,7823,4294967044,541,489,4294966716,4294966716,4294966716
418208848,6465214,6473045,14206,4646,6312,61,4294967140,60,10898,7729,9859,591,661,71,14652,4294964205,7738,4294967196,404,332,4294966717,4294966717,4294966717
418214847,6464805,6472682,14257,4621,6381,95,4294967196,121,10935,7790,9889,580,732,20,14610,4294964324,7797,4294967052,282,255,4294966715,4294966715,4294966715
418220829,6465038,6472805,14177,4665,6297,137,4294967228,126,11008,7742,10021,531,719,4294967273,14671,4294964214,7901,4294967046,213,164,4294966729,4294966729,4294966729
418226858,6464932,6472861,14250,4694,6314,148,4294967214,180,11132,7776,9994,663,738,4294967209,14624,4294964196,8058,4294967020,189,59,4294966710,4294966710,4294966710
418232853,6464602,6472563,14203,4640,6338,113,4294967202,233,11239,7851,9980,595,697,4294967208,14688,4294964015,8038,4294967214,157,4294967292,4294966715,4294966715,4294966715
418238845,6464474,6472200,14205,4576,6349,121,4294967208,257,11326,7876,10020,533,631,4294967200,14685,4294964085,7912,73,188,4294967228,4294966721,4294966721,4294966721
418244843,6464393,6471843,14136,4543,6392,86,4294967169,250,11286,7937,10042,467,487,4294967154,14671,4294964152,7946,165,275,4294967196,4294966722,4294966722,4294966722
418250865,6464339,6472050,14059,4567,6571,46,4294967121,267,11393,7926,10024,372,360,4294967147,14671,4294964123,7794,187,415,4294967196,4294966706,4294966706,4294966706
418256854,6464263,6471980,14118,4555,6582,11,4294967012,253,11402,7991,10065,232,263,4294967112,14667,4294964111,7776,256,598,4294967259,4294966714,4294966714,4294966714
418262842,6464057,6471774,14101,4542,6513,4294967269,4294966922,239,11431,7892,10034,40,160,4294967111,14629,4294964141,7679,196,698,30,4294966721,4294966721,4294966721
418268838,6463959,6471743,14147,4424,6472,4294967218,4294966855,225,11347,7881,10122,4294967198,61,4294967103,14632,4294964134,7613,175,796,66,4294966725,4294966725,4294966725
418274847,6464233,6472067,14266,4421,6469,4294967211,4294966777,200,11400,7933,10230,4294967074,10,4294967121,14504,4294963994,7735,85,917,149,4294966716,4294966716,4294966716
418280845,6464269,6472080,14262,4343,6468,4294967222,4294966816,160,11332,7938,10161,4294967012,4294967265,4294967106,14523,4294964024,7666,88,926,176,4294966718,4294966718,4294966718
418286860,6464392,6472210,14274,4386,6458,4294967224,4294966906,108,11323,7890,10152,4294966969,4294967279,4294967145,14436,4294964023,7755,1,938,240,4294966709,4294966709,4294966709
418292845,6464243,6472160,14361,4346,6411,4294967215,4294966976,104,11248,7901,10157,4294966959,4294967275,4294967142,14414,4294964043,7739,4294967243,920,308,4294966721,4294966721,4294966721
418298826,6464434,6472280,14310,4390,6425,4294967205,4294967100,74,11219,7829,10110,4294966962,4294967277,4294967157,14422,4294964055,7744,4294967236,854,371,4294966731,4294966731,4294966731
418304849,6464648,6472546,14261,4383,6484,4294967182,4294967180,58,11175,7827,9998,4294967009,29,4294967164,14431,4294964058,7559,4294967144,792,410,4294966716,4294966716,4294966716
418310841,6464498,6472339,14223,4424,6465,4294967189,4294967209,78,11069,7824,10037,4294967093,134,4294967222,14511,4294964032,7765,4294967130,693,428,4294966719,4294966719,4294966719
418316864,6464321,6472057,14093,4479,6442,4294967201,4294967203,53,11052,7815,9973,4294967067,189,4294967216,14517,4294963996,7831,4294967155,624,453,4294966709,4294966709,4294966709
418322847,6464149,6471844,14062,4540,6451,4294967221,4294967135,70,11072,7779,9976,4294967027,213,4294967219,14508,4294963999,7841,4294967206,548,434,4294966715,4294966715,4294966715
418328848,6464050,6471820,13993,4540,6587,4294967219,4294967032,108,11078,7728,9953,4294967035,278,4294967220,14460,4294963947,7769,4294967154,563,440,4294966717,4294966717,4294966717
418334843,6464450,6472165,14042,4586,6543,4294967229,4294966953,123,11102,7736,9883,4294967029,306,4294967234,14436,4294963921,7916,4294967169,576,416,4294966719,4294966719,4294966719
418340850,6464431,6472063,13989,4577,6434,4294967241,4294966861,115,11091,7752,10076,4294967013,284,4294967206,14317,4294963853,8007,4294967203,654,361,4294966717,4294966717,4294966717
418346854,6464419,6472205,13954,4565,6361,4294967231,4294966793,88,11111,7768,10041,4294966964,281,4294967185,14279,4294963931,8077,4294967135,681,297,4294966714,4294966714,4294966714
418352853,6464106,6471776,13948,4555,6325,4294967231,4294966757,60,11129,7767,10104,4294966889,237,4294967157,14210,4294963894,8151,4294967024,786,245,4294966717,4294966717,4294966717
418358859,6464380,6471934,14068,4567,6425,4294967200,4294966789,21,11099,7864,10143,4294966882,178,4294967157,14187,4294963916,8142,4294966946,882,188,4294966711,4294966711,4294966711
418364829,6464582,6472220,14044,4510,6400,4294967191,4294966815,4294967280,11098,7883,10126,4294966866,125,4294967149,14183,4294963989,8160,4294966850,889,107,4294966729,4294966729,4294966729
418370858,6464854,6472567,14015,4564,6389,4294967175,4294966839,4294967272,11061,7785,10049,4294966813,85,4294967199,14264,4294963998,8254,4294966757,843,82,4294966712,4294966712,4294966712
418376842,6464830,6472548,14074,4511,6390,4294967154,4294966915,4294967213,11021,7772,10188,4294966772,35,4294967180,14197,4294964026,8403,4294966715,748,25,4294966721,4294966721,4294966721
418382866,6464047,6471940,14036,4574,6323,4294967127,4294966952,4294967208,11089,7755,10064,4294966781,23,4294967180,14213,4294964071,8527,4294966838,636,21,4294966705,4294966705,4294966705
418388830,6463885,6471952,14085,4521,6392,4294967097,4294967050,4294967196,11033,7670,10102,4294966820,10,4294967189,14186,4294964129,8365,4294966825,484,4294967276,4294966729,4294966729,4294966729
418396852,6463953,6471912,14158,4608,6477,4294967139,4294967104,4294967168,11054,7641,10206,4294966892,58,4294967183,14228,4294964018,8174,4294966817,465,4294967266,4294966716,4294966716,4294966716
418404834,6463960,6471818,14094,4647,6390,4294967195,4294967141,4294967183,11047,7641,10189,4294966964,146,4294967223,14246,4294964111,7861,4294966815,642,29,4294966727,4294966727,4294966727
418410847,6464263,6472446,14037,4675,6489,4294967205,4294967155,4294967167,11057,7618,10171,4294967015,207,4294967228,14240,4294964204,7717,4294966695,764,93,4294966717,4294966717,4294966717
418416856,6464271,6472264,14107,4731,6448,4294967196,4294967155,4294967172,11049,7674,10148,4294967040,263,4294967231,14310,4294964180,7891,4294966699,877,176,4294966711,4294966711,4294966711
418424849,6464386,6472266,14052,4751,6438,4294967172,4294967129,4294967170,11078,7677,10109,4294967107,378,4294967228,14385,4294964189,7902,4294966805,896,291,4294966719,4294966719,4294966719
418430852,6464841,6473073,14024,4758,6437,4294967155,4294967091,4294967139,11054,7702,10208,4294967136,406,4294967220,14308,4294964037,8036,4294966834,863,365,4294966713,4294966713,4294966713
418438846,6464473,6471734,14051,4855,6442,4294967174,4294967047,4294967144,11029,7801,10190,4294967168,444,4294967209,14417,4294963940,8143,4294966878,808,304,4294966722,4294966722,4294966722
418444844,6464898,6472799,14025,4805,6398,4294967193,4294967052,4294967141,10990,7791,10203,4294967207,473,4294967197,14454,4294963889,8161,4294966870,707,290,4294966720,4294966720,4294966720
418450833,6464662,6472295,14036,4850,6354,4294967206,4294967069,4294967158,11004,7765,10194,50,481,4294967180,14458,4294963835,8327,4294966884,613,225,4294966727,4294966727,4294966727
418456841,6464583,6472043,14039,4825,6329,4294967234,4294967061,4294967172,10998,7724,10179,4294967285,467,4294967153,14477,4294963848,8353,4294966847,456,194,4294966720,4294966720,4294966720
418462852,6464681,6471978,14031,4810,6350,4294967260,4294967080,4294967169,11023,7748,10140,4294967226,468,4294967098,14318,4294963935,8455,4294966803,363,146,4294966713,4294966713,4294966713
418470841,6464253,6471566,14034,4831,6358,2,4294967084,4294967179,10973,7738,10110,4294967120,472,4294967054,14273,4294963856,8544,4294966946,332,47,4294966719,4294966719,4294966719
418476844,6464785,6472554,14054,4739,6318,12,4294967094,4294967178,10979,7804,10187,4294967031,462,4294967011,14142,4294963888,8569,4294967123,358,4294967272,4294966721,4294966721,4294966721
418482873,6464344,6471700,14075,4788,6367,4294967293,4294967084,4294967195,10987,7774,10162,4294967011,405,4294966980,14097,4294963948,8456,4294967289,384,4294967289,4294966701,4294966701,4294966701
418490864,6464152,6471248,14060,4666,6357,4294967241,4294967037,4294967159,11008,7755,10142,4294966989,364,4294966959,14047,4294963967,8484,149,481,4294967282,4294966706,4294966706,4294966706
418498829,6464070,6471268,14091,4649,6384,4294967187,4294966967,4294967139,11019,7741,10107,4294966980,326,4294966952,14042,4294963894,8256,192,615,7,4294966729,4294966729,4294966729
418504846,6464431,6472524,14133,4594,6347,4294967148,4294966883,4294967139,11086,7681,10149,4294967001,282,4294966988,14018,4294963923,8150,174,776,45,4294966721,4294966721,4294966721
418510836,6463988,6472557,14143,4599,6382,4294967123,4294966803,4294967117,11166,7674,10255,4294967003,252,4294967010,13995,4294963902,8158,109,819,52,4294966723,4294966723,4294966723
418516872,6464747,6473223,14077,4584,6411,4294967132,4294966778,4294967086,11143,7673,10255,4294967031,197,4294967040,14032,4294963836,8060,99,826,38,4294966699,4294966699,4294966699
418522846,6466361,6474752,14131,4523,6330,4294967131,4294966789,4294967068,11109,7677,10256,4294967046,192,4294967068,14100,4294963927,8212,56,762,62,4294966720,4294966720,4294966720
418528866,6468718,6476384,14164,4497,6337,4294967165,4294966847,4294967063,11146,7679,10326,4294967071,153,4294967121,14117,4294963947,8191,37,695,96,4294966706,4294966706,4294966706
418534843,6470223,6479335,14133,4522,6360,4294967231,4294966902,4294967097,11096,7731,10265,4294967118,188,4294967177,14216,4294963958,8251,6,584,99,4294966719,4294966719,4294966719
418540866,6466533,6475304,14081,4473,6395,4294967257,4294967037,4294967073,11044,7605,10272,4294967162,203,4294967189,14146,4294963930,8202,23,462,138,4294966706,4294966706,4294966706
418546853,6464510,6471817,14095,4525,6395,8,4294967125,4294967085,10970,7604,10292,4294967170,225,4294967201,14109,4294963973,8322,18,311,169,4294966714,4294966714,4294966714
418552856,6460724,6466294,14060,4505,6343,6,4294967217,4294967074,10954,7583,10340,4294967174,296,4294967197,14099,4294963946,8410,88,186,219,4294966713,4294966713,4294966713
418558840,6459941,6467688,14143,4544,6327,5,4294967281,4294967101,10866,7513,10254,4294967198,332,4294967197,14048,4294963911,8388,210,57,265,4294966721,4294966721,4294966721
418564855,6460086,6468783,14179,4522,6296,4294967291,11,4294967124,10849,7605,10283,4294967253,375,4294967191,14011,4294963905,8301,306,15,278,4294966714,4294966714,4294966714
418570861,6461493,6469287,14119,4548,6336,4294967277,4294967291,4294967135,10889,7623,10165,27,412,4294967146,13982,4294963879,8346,427,4294967244,288,4294966708,4294966708,4294966708
418576836,6462224,6469974,14084,4532,6268,4294967277,4294967261,4294967128,10849,7685,10088,81,402,4294967171,14037,4294963860,8369,504,4294967175,304,4294966724,4294966724,4294966724
418582866,6463457,6471292,14144,4554,6240,4294967257,4294967275,4294967106,10873,7688,10208,153,395,4294967167,14067,4294963860,8117,629,4294967202,309,4294966706,4294966706,4294966706
418588845,6463935,6471848,14137,4610,6178,4294967223,4294967263,4294967075,10898,7741,10184,276,419,4294967217,14144,4294963869,8095,743,4294967181,336,4294966721,4294966721,4294966721
418594850,6463912,6471760,14048,4612,6356,4294967256,4294967225,4294967103,10942,7807,10048,340,445,4294967218,14144,4294963950,8360,659,4294967191,366,4294966716,4294966716,4294966716
418600847,6463881,6471512,13990,4621,6291,4294967254,4294967240,4294967097,11026,7720,10209,353,355,4294967222,14167,4294963992,8352,546,4294967225,372,4294966717,4294966717,4294966717
418606847,6464159,6471673,13990,4573,6463,4294967249,4294967221,4294967067,11020,7752,10194,311,265,4294967206,14180,4294963875,8316,621,4294967267,360,4294966714,4294966714,4294966714
418612850,6464258,6471645,13916,4593,6438,4294967204,4294967255,4294967028,11015,7784,10313,281,192,4294967218,14306,4294963955,8085,725,31,372,4294966717,4294966717,4294966717
418618840,6464258,6471668,13931,4650,6445,4294967194,4294967222,4294967036,11046,7743,10571,230,113,4294967212,14293,4294964055,8058,872,84,375,4294966722,4294966722,4294966722
418624852,6464648,6472303,14052,4662,6378,4294967226,4294967153,4294967094,11007,7752,10586,165,53,4294967179,14284,4294964177,8270,997,130,358,4294966717,4294966717,4294966717
418630844,6464928,6472630,14178,4687,6231,11,4294967063,4294967142,10933,7700,10649,79,75,4294967181,14230,4294964134,8388,1209,165,394,4294966717,4294966717,4294966717
418636852,6464867,6472593,14344,4637,6158,104,4294967003,4294967216,10919,7750,10497,4294967271,31,4294967167,14172,4294964136,8389,1151,110,359,4294966715,4294966715,4294966715
418642851,6465186,6473011,14372,4652,6046,144,4294967023,4294967222,10911,7785,10378,4294967138,4294967227,4294967146,14095,4294964082,8318,1210,4294967290,328,4294966714,4294966714,4294966714
418650851,6465057,6472595,14379,4570,5969,155,4294967196,4294967218,10851,7773,10233,4294967061,4294967194,4294967107,14086,4294964093,8078,1269,4294967216,284,4294966714,4294966714,4294966714
418658844,6465731,6473866,14257,4583,6183,82,76,4294967177,10869,7722,10047,4294967218,17,4294967072,14189,4294964152,7989,1179,4294967090,227,4294966722,4294966722,4294966722
418664850,6466227,6474854,14200,4601,6251,4294967279,157,4294967129,10816,7743,9973,4294967281,93,4294967035,14166,4294964169,8042,1089,4294967094,273,4294966717,4294966717,4294966717
418670862,6465688,6473843,14111,4637,6409,4294967203,220,4294967117,10870,7735,10010,38,148,4294967001,14236,4294964218,7952,943,4294967072,208,4294966706,4294966706,4294966706
418676839,6466098,6474168,14000,4619,6424,4294967107,228,4294967125,10836,7814,10011,107,183,4294966985,14283,4294964154,7941,772,4294966972,217,4294966722,4294966722,4294966722
418682839,6466307,6474366,13926,4671,6398,4294967115,239,4294967149,10820,7838,9992,176,202,4294966975,14258,4294964078,7912,688,4294966903,191,4294966723,4294966723,4294966723
418688855,6466117,6474195,13914,4659,6355,4294967168,160,4294967205,10885,7818,10000,282,227,4294966992,14341,4294964098,7936,742,4294966762,170,4294966711,4294966711,4294966711
418694851,6466015,6474120,13899,4661,6340,4294967194,81,4294967250,11004,7923,9901,352,267,4294966990,14343,4294964025,8017,825,4294966695,154,4294966717,4294966717,4294966717
418700836,6466093,6474130,13947,4701,6456,4294967266,4294967278,4294967290,11093,7898,9823,382,264,4294966976,14425,4294964032,7990,953,4294966681,230,4294966723,4294966723,4294966723
418706840,6466154,6474271,14018,4640,6446,4294967267,4294967205,28,11236,7917,9827,399,306,4294967014,14443,4294964106,7966,1090,4294966677,231,4294966721,4294966721,4294966721
418712840,6466095,6474372,14063,4612,6417,4294967284,4294967129,53,11251,7953,10026,415,340,4294967046,14400,4294963999,7873,1121,4294966714,218,4294966722,4294966722,4294966722
418718845,6466253,6474585,14096,4575,6493,6,4294967081,52,11384,7917,9995,361,328,4294967110,14455,4294963974,7900,1163,4294966767,189,4294966718,4294966718,4294966718
418724861,6466865,6475374,14120,4572,6504,4294967273,4294967072,37,11356,7983,10107,331,292,4294967175,14412,4294963905,7910,1141,4294966875,210,4294966711,4294966711,4294966711
418730830,6466820,6475479,14093,4474,6479,4294967260,4294967088,3,11456,7951,10124,286,223,4294967254,14324,4294963905,8019,1185,4294966902,227,4294966729,4294966729,4294966729
418736841,6466668,6475532,14139,4476,6497,4294967210,4294967148,4294967253,11433,7904,10125,172,158,1,14320,4294963898,8042,1123,4294966982,235,4294966721,4294966721,4294966721
418742854,6466933,6475791,14161,4416,6532,4294967180,4294967215,4294967212,11438,7850,10210,9,32,80,14205,4294963862,7943,1112,4294967048,263,4294966714,4294966714,4294966714
418748847,6466986,6475843,14172,4431,6537,4294967148,4294967271,4294967141,11438,7791,10242,4294967159,4294967239,142,14191,4294963953,7871,1029,4294967162,305,4294966715,4294966715,4294966715
418756842,6466743,6475039,14214,4455,6454,4294967092,4,4294967119,11375,7706,10253,4294967077,4294967132,195,14161,4294964088,7732,897,4294967291,413,4294966720,4294966720,4294966720
418762827,6466663,6475451,14256,4505,6364,4294967111,4294967295,4294967075,11358,7729,10149,4294967068,4294967145,259,14212,4294964174,7601,835,65,493,4294966728,4294966728,4294966728
418768849,6466484,6475174,14116,4507,6430,4294967123,4294967281,4294967027,11326,7688,10144,4294967107,4294967154,266,14190,4294964142,7550,805,81,585,4294966715,4294966715,4294966715
418774840,6466436,6474913,14162,4510,6480,4294967083,4294967267,4294966991,11319,7717,10114,4294967160,4294967176,293,14379,4294964192,7498,819,42,665,4294966723,4294966723,4294966723
418780839,6466235,6474624,14115,4562,6459,4294967068,4294967269,4294966962,11318,7759,10113,4294967188,4294967222,344,14488,4294964188,7494,669,106,755,4294966720,4294966720,4294966720
418786838,6466108,6474336,14110,4629,6377,4294967104,4294967226,4294966991,11297,7771,10089,4294967215,4294967283,355,14487,4294964172,7529,466,182,803,4294966724,4294966724,4294966724
418792854,6465705,6473975,14022,4641,6355,4294967117,4294967182,4294966983,11242,7819,10124,4294967182,4294967274,353,14454,4294964165,7456,300,190,842,4294966715,4294966715,4294966715
418798825,6465608,6473705,14094,4641,6363,4294967132,4294967122,4294966994,11177,7863,10139,4294967203,4294967266,394,14496,4294964165,7541,112,241,804,4294966733,4294966733,4294966733
418804849,6465471,6473480,14145,4653,6273,4294967141,4294967056,4294967009,11166,7928,10107,4294967233,4294967277,408,14536,4294964223,7677,4294967242,239,770,4294966714,4294966714,4294966714
418810855,6465377,6473494,14144,4670,6255,4294967172,4294967025,4294967006,11101,7972,10138,4294967210,4294967265,431,14577,4294964284,7734,4294967071,271,707,4294966710,4294966710,4294966710
418818860,6465381,6473426,14120,4635,6248,4294967210,4294966989,4294966986,11025,7965,10000,4294967152,4294967268,414,14730,4294964154,7925,4294967055,242,597,4294966707,4294966707,4294966707
418826849,6464972,6472699,14087,4683,6324,4294967216,4294967027,4294966942,10905,7991,10011,4294967061,4294967257,346,14749,4294964188,7826,4294966934,269,462,4294966717,4294966717,4294966717
418832853,6465018,6473245,14090,4674,6254,4294967229,4294967048,4294966954,10858,7766,10122,4294967079,5,309,14786,4294964423,7665,4294966891,334,408,4294966717,4294966717,4294966717
418838845,6464835,6472462,14114,4728,6187,4294967242,4294967072,4294966958,10788,7656,10181,4294967147,74,260,14774,4294964587,7502,4294966551,451,367,4294966720,4294966720,4294966720
418844846,6464480,6472202,14107,4787,6147,4294967273,4294967122,4294967016,10690,7677,10168,4294967222,170,202,14705,4294964752,7470,4294966150,644,367,4294966720,4294966720,4294966720
418850848,6464353,6472125,14136,4781,6095,8,4294967158,4294967052,10699,7689,10184,4294967273,198,158,14604,4294964727,7502,4294965820,880,410,4294966718,4294966718,4294966718
418856858,6464584,6472244,14091,4848,6138,49,4294967215,4294967099,10762,7705,10126,4294967239,255,98,14516,4294964627,7498,4294965672,1104,441,4294966714,4294966714,4294966714
418862852,6464450,6472048,14100,4847,6156,85,4294967291,4294967174,10731,7768,10039,4294967189,244,29,14483,4294964482,7727,4294965822,1324,417,4294966716,4294966716,4294966716
418868845,6464100,6471710,14080,4916,6157,126,93,4294967206,10766,7881,10002,4294967169,290,4294967285,14458,4294964279,8035,4294966293,1376,349,4294966719,4294966719,4294966719
418874846,6464136,6471709,14059,4886,6215,116,128,4294967247,10759,7944,9975,4294967267,296,4294967274,14473,4294964132,8510,4294966953,1195,235,4294966720,4294966720,4294966720
418880841,6464515,6472160,14117,4807,6234,98,150,4294967273,10892,7960,9922,105,354,4294967237,14486,4294963992,8700,289,901,137,4294966721,4294966721,4294966721
418886838,6464192,6471946,14086,4788,6144,76,123,4294967259,10968,7942,9919,161,353,4294967229,14547,4294963907,8655,735,507,29,4294966725,4294966725,4294966725
418892863,6464425,6472266,14124,4757,6180,26,121,4294967252,11062,7906,9924,208,341,4294967192,14579,4294963841,8597,948,130,4294967261,4294966707,4294966707,4294966707
418898842,6464639,6472492,14188,4753,6186,4294967294,103,4294967231,11069,7908,9963,191,271,4294967173,14529,4294963774,8374,916,4294967210,4294967233,4294966721,4294966721,4294966721
418904855,6464738,6472536,14268,4728,6118,4294967261,94,4294967198,11109,7893,10050,168,236,4294967137,14529,4294963758,8041,861,4294967043,4294967218,4294966714,4294966714,4294966714
418910849,6464336,6472173,14247,4688,6196,4294967238,66,4294967203,11201,7835,10126,92,138,4294967142,14424,4294963797,7785,796,4294967064,4294967212,4294966717,4294966717,4294966717
418916842,6464316,6472196,14250,4658,6212,4294967197,55,4294967156,11220,7881,10194,16,42,4294967122,14408,4294963985,7605,688,4294967175,4294967204,4294966718,4294966718,4294966718
418922857,6464051,6471854,14228,4669,6205,4294967150,72,4294967135,11269,7778,10202,4294967238,4294967269,4294967120,14397,4294963944,7502,460,80,4294967248,4294966710,4294966710,4294966710
418928848,6464037,6471770,14267,4637,6228,4294967131,69,4294967137,11271,7803,10148,4294967165,4294967201,4294967116,14275,4294963831,7498,294,291,4294967282,4294966718,4294966718,4294966718
418934854,6464058,6471725,14126,4676,6377,4294967100,54,4294967123,11317,7757,10209,4294967118,4294967175,4294967136,14243,4294963997,7588,83,388,4294967278,4294966716,4294966716,4294966716
418940860,6464291,6471921,14114,4698,6407,4294967092,34,4294967125,11256,7693,10140,4294967103,4294967158,4294967162,14221,4294963974,7727,4294967114,494,24,4294966711,4294966711,4294966711
418946849,6464396,6472101,14173,4696,6404,4294967076,4294967266,4294967134,11268,7612,10170,4294967063,4294967154,4294967163,14240,4294963983,7787,4294967039,524,9,4294966719,4294966719,4294966719
418954871,6464332,6472123,14138,4684,6452,4294967067,4294967170,4294967146,11297,7586,10104,4294966972,4294967179,4294967192,14209,4294964025,8041,4294967006,480,10,4294966699,4294966699,4294966699
418962828,6464165,6471685,14107,4679,6344,4294967050,4294967097,4294967154,11242,7591,10201,4294966896,4294967210,4294967172,14137,4294963995,8007,4294967087,444,4294967278,4294966728,4294966728,4294966728
418970854,6464013,6471842,14109,4657,6433,4294967049,4294967067,4294967126,11278,7619,10031,4294966883,4294967233,4294967201,14175,4294964074,8114,4294967138,429,4,4294966712,4294966712,4294966712
418978857,6463998,6471650,14121,4657,6391,4294967038,4294967077,4294967080,11178,7734,10062,4294966926,10,4294967206,14109,4294964067,7989,4294967119,446,51,4294966711,4294966711,4294966711
418984822,6464072,6472176,14123,4644,6344,4294967036,4294967114,4294967034,11180,7689,9956,4294966940,84,4294967236,14089,4294964016,7961,4294967051,467,91,4294966733,4294966733,4294966733
418990863,6464011,6472033,14117,4635,6409,4294967038,4294967155,4294967017,11199,7745,9963,4294966984,132,4294967244,14142,4294964026,7937,4294967028,473,113,4294966707,4294966707,4294966707
418996847,6464042,6472070,14074,4591,6353,4294967038,4294967220,4294966969,11162,7759,9917,4294966958,188,4294967290,14283,4294963969,7946,4294967015,472,172,4294966718,4294966718,4294966718
419002854,6464339,6472335,14093,4618,6394,4294967051,4294967274,4294966956,11130,7723,9891,4294966943,224,4294967295,14230,4294963887,7990,4294967008,487,208,4294966712,4294966712,4294966712
419008867,6463820,6471969,14044,4643,6376,4294967077,18,4294966972,11134,7740,10052,4294966940,250,42,14289,4294963826,7979,4294967063,514,244,4294966704,4294966704,4294966704
419014844,6464247,6472388,14033,4658,6410,4294967080,63,4294966972,11096,7733,10031,4294966936,210,74,14306,4294963789,7949,4294967132,489,286,4294966720,4294966720,4294966720
419020851,6464379,6472496,13999,4755,6387,4294967122,133,4294966989,11118,7714,10096,4294966984,191,83,14352,4294963811,8044,4294967176,470,330,4294966712,4294966712,4294966712
419026837,6464080,6472232,13989,4756,6415,4294967144,186,4294967006,11120,7681,9997,4294967016,185,94,14353,4294963806,8024,4294967229,508,369,4294966725,4294966725,4294966725
419032838,6463856,6471820,14009,4810,6476,4294967176,232,4294967014,11134,7671,10049,4294967086,209,116,14374,4294963791,8062,4294967262,573,396,4294966723,4294966723,4294966723
419038858,6464025,6471781,13992,4894,6381,4294967168,269,4294967047,11076,7580,9989,4294967146,269,158,14403,4294963891,8173,21,598,415,4294966712,4294966712,4294966712
419044838,6463908,6471809,13964,4864,6440,4294967186,284,4294967036,11158,7626,9908,4294967200,317,166,14356,4294963820,8237,66,614,439,4294966724,4294966724,4294966724
419050849,6463595,6471460,14001,4866,6462,4294967171,311,4294967044,11143,7605,10007,4294967238,364,169,14342,4294963792,8373,125,628,456,4294966716,4294966716,4294966716
419056836,6463706,6471429,13949,4881,6507,4294967164,352,4294967023,11214,7595,10219,4294967237,354,173,14327,4294963814,8496,239,568,452,4294966724,4294966724,4294966724
419062866,6463550,6471177,13969,4823,6426,4294967151,366,4294966963,11179,7660,10140,4294967232,335,162,14312,4294963800,8605,305,445,408,4294966705,4294966705,4294966705
419068867,6463489,6471136,13915,4866,6469,4294967149,407,4294966921,11205,7557,10193,4294967199,344,174,14239,4294963769,8602,381,349,365,4294966705,4294966705,4294966705
419074851,6463382,6470929,13948,4870,6493,4294967116,409,4294966879,11260,7559,10251,4294967152,330,187,14326,4294963743,8489,463,274,340,4294966713,4294966713,4294966713
419080838,6463690,6471200,13976,4896,6567,4294967103,380,4294966847,11192,7518,10346,4294967126,378,184,14314,4294963777,8387,537,239,312,4294966723,4294966723,4294966723
419086853,6464143,6471892,13987,4883,6575,4294967087,344,4294966816,11219,7483,10417,4294967125,380,144,14262,4294963831,8342,577,308,306,4294966715,4294966715,4294966715
419092846,6464041,6471636,14030,4899,6620,4294967084,311,4294966764,11216,7397,10397,4294967152,418,127,14252,4294963837,8083,574,402,322,4294966720,4294966720,4294966720
419098852,6464019,6471608,13999,4867,6616,4294967065,309,4294966727,11136,7369,10406,4294967222,482,114,14202,4294963905,8021,521,528,346,4294966713,4294966713,4294966713
419104838,6463951,6471548,14001,4838,6591,4294967083,267,4294966710,11066,7364,10457,4294967270,530,74,14204,4294963824,8001,509,636,393,4294966725,4294966725,4294966725
419110843,6463951,6471807,13991,4821,6644,4294967084,239,4294966731,11026,7415,10463,4294967259,561,79,14255,4294963907,8034,490,687,390,4294966723,4294966723,4294966723
419116854,6463624,6472422,13967,4845,6528,4294967095,192,4294966749,11032,7487,10504,4294967228,588,65,14188,4294963841,8173,502,734,421,4294966715,4294966715,4294966715
419122861,6464105,6472646,13998,4828,6533,4294967141,130,4294966811,11059,7522,10444,4294967238,601,87,14216,4294963875,8128,505,707,431,4294966711,4294966711,4294966711
419128852,6465242,6473735,13961,4752,6540,4294967174,69,4294966827,11076,7538,10373,4294967263,626,103,14167,4294963875,8190,497,658,445,4294966713,4294966713,4294966713
419134839,6467412,6474983,13840,4887,6563,4294967210,14,4294966851,11097,7553,10362,4294967279,644,110,14189,4294963892,8257,539,569,465,4294966723,4294966723,4294966723
419140855,6469742,6478148,13889,4753,6556,4294967229,4294967261,4294966908,11059,7594,10367,3,593,110,14200,4294963925,8277,572,498,455,4294966711,4294966711,4294966711
419146851,6469926,6479198,13874,4826,6526,4294967225,4294967223,4294966925,11027,7615,10379,7,523,107,14214,4294963989,8288,571,427,458,4294966713,4294966713,4294966713
419152842,6466085,6474720,13802,4766,6689,4294967231,4294967192,4294966939,11010,7579,10417,4,479,108,14140,4294963972,8268,561,332,468,4294966720,4294966720,4294966720
419158859,6462368,6468461,13773,4718,6757,4294967254,4294967185,4294966946,11027,7590,10447,2,425,120,14136,4294963978,8186,559,280,463,4294966712,4294966712,4294966712
419164837,6459775,6466819,13778,4727,6674,4294967217,4294967180,4294966926,11026,7600,10482,4294967229,327,113,14139,4294964015,8239,546,298,468,4294966725,4294966725,4294966725
419170849,6459866,6468826,13881,4695,6550,4294967221,4294967170,4294966952,11051,7569,10486,4294967145,232,109,14136,4294964002,8178,520,295,465,4294966720,4294966720,4294966720
419176840,6461087,6469362,13941,4726,6588,4294967230,4294967170,4294966989,11085,7504,10406,4294967114,213,122,14035,4294964005,8105,511,379,458,4294966718,4294966718,4294966718
419182839,6462157,6470361,13864,4672,6643,4294967280,4294967145,4294966996,11057,7579,10361,4294967085,164,130,14074,4294964024,8085,495,408,449,4294966724,4294966724,4294966724
419188846,6463123,6471480,13975,4680,6657,0,4294967165,4294967003,11056,7486,10560,4294967005,152,135,14126,4294963971,8076,451,454,453,4294966715,4294966715,4294966715
419194849,6463718,6472013,14028,4720,6579,3,4294967175,4294967022,10999,7472,10538,4294966999,88,147,14097,4294963941,8121,418,520,476,4294966714,4294966714,4294966714
419200840,6463911,6471946,14026,4763,6628,4294967280,4294967155,4294967047,10997,7469,10445,4294967077,164,140,14080,4294963949,8068,370,589,489,4294966722,4294966722,4294966722
419206846,6464032,6472261,14026,4788,6765,4294967257,4294967208,4294967057,11041,7481,10365,4294967142,215,149,14160,4294964041,8086,275,610,480,4294966719,4294966719,4294966719
419212842,6463925,6471964,14004,4814,6750,4294967230,4294967228,4294967071,10965,7429,10320,4294967127,206,127,14149,4294964034,8080,159,606,496,4294966718,4294966718,4294966718
419218838,6463973,6471867,13951,4799,6823,4294967195,4294967282,4294967055,10935,7389,10367,4294967093,240,116,14201,4294964062,7992,132,579,464,4294966722,4294966722,4294966722
419224848,6464197,6472341,13873,4839,6840,4294967161,50,4294967060,10962,7377,10541,4294967090,252,129,14205,4294964030,7921,180,530,454,4294966717,4294966717,4294966717
419230836,6463962,6472368,13900,4921,6756,4294967138,86,4294967070,10923,7377,10692,4294967199,238,130,14187,4294963984,8007,289,499,458,4294966723,4294966723,4294966723
419236844,6464342,6472430,13958,4941,6708,4294967181,36,4294967100,10921,7334,10709,4294967262,251,131,14269,4294963904,8094,421,488,427,4294966720,4294966720,4294966720
419242835,6464590,6472863,14040,4909,6494,4294967207,4294967288,4294967175,10965,7315,10660,4294967286,260,126,14240,4294963894,8365,586,432,410,4294966726,4294966726,4294966726
419248861,6464609,6473014,14098,4904,6373,4294967246,4294967255,4294967225,10969,7427,10456,4294967239,245,88,14332,4294963861,8332,726,378,371,4294966712,4294966712,4294966712
419254842,6464366,6472731,14098,4904,6298,16,4294967290,4294967256,11019,7431,10248,4294967174,197,41,14307,4294963853,8297,782,325,392,4294966723,4294966723,4294966723
419260837,6464480,6472838,14041,4812,6179,39,62,4294967239,11119,7431,10016,4294967149,165,4294967289,14295,4294963837,8278,755,268,371,4294966724,4294966724,4294966724
419266857,6464390,6472823,14007,4710,6252,72,177,4294967249,11113,7438,10079,4294967167,153,4294967241,14420,4294963807,8370,709,194,355,4294966710,4294966710,4294966710
419272842,6464619,6472967,13885,4686,6382,23,265,4294967202,11148,7377,10051,4294967157,133,4294967184,14336,4294963761,8412,699,142,340,4294966718,4294966718,4294966718
419278850,6464787,6473309,13809,4670,6413,4294967247,301,4294967154,11154,7366,10136,4294967133,92,4294967100,14328,4294963692,8471,711,56,337,4294966717,4294966717,4294966717
419284850,6465063,6473718,13767,4717,6379,4294967175,329,4294967132,11098,7333,10204,4294967114,66,4294967096,14289,4294963623,8546,746,4294967223,283,4294966716,4294966716,4294966716
419290833,6465035,6473503,13738,4647,6412,4294967114,351,4294967123,11087,7373,10267,4294967125,4294967278,4294967031,14265,4294963571,8437,844,4294967097,228,4294966727,4294966727,4294966727
419296831,6465141,6473606,13731,4712,6428,4294967086,342,4294967117,11096,7376,10344,4294967184,4294967195,4294967008,14141,4294963625,8380,867,4294966991,190,4294966727,4294966727,4294966727
419302860,6465576,6474242,13659,4673,6494,4294967087,263,4294967106,11044,7415,10369,4294967246,4294967112,4294967043,14108,4294963705,8298,843,4294966960,175,4294966707,4294966707,4294966707
419310840,6465733,6474522,13797,4785,6673,4294967126,109,4294967184,11155,7394,10273,91,4294967101,4294967045,14034,4294963693,8124,712,4294967098,171,4294966721,4294966721,4294966721
419316840,6466111,6475252,13874,4783,6689,4294967157,4294967252,4294967209,11154,7473,10175,131,4294967170,4294967093,13937,4294963766,8013,621,4294967293,272,4294966721,4294966721,4294966721
419322836,6465932,6474943,13959,4766,6685,4294967146,4294967077,4294967246,11328,7506,10136,122,4294967272,4294967161,13931,4294963771,7852,544,160,254,4294966723,4294966723,4294966723
419328840,6466288,6475409,14101,4811,6675,4294967145,4294966955,4294967275,11315,7540,10089,52,74,4294967227,13988,4294963803,7964,468,328,287,4294966721,4294966721,4294966721
419334839,6466347,6475483,14110,4840,6747,4294967168,4294966825,4294967260,11400,7553,10154,4294967295,137,4294967280,13953,4294963762,7923,371,429,335,4294966725,4294966725,4294966725
419340849,6466575,6475496,14133,4833,6761,4294967170,4294966767,4294967280,11423,7516,10246,4294967183,192,39,14004,4294963700,7947,332,463,333,4294966717,4294966717,4294966717
419346842,6466521,6475519,14149,4828,6659,4294967171,4294966768,4294967246,11419,7516,10304,4294967137,222,65,14016,4294963681,7954,257,456,356,4294966720,4294966720,4294966720
419352858,6466269,6475463,14167,4856,6668,4294967157,4294966797,4294967220,11469,7468,10239,4294967065,231,100,14127,4294963673,8013,218,428,322,4294966710,4294966710,4294966710
419358865,6466431,6475741,14138,4820,6625,4294967158,4294966851,4294967189,11425,7435,10281,4294967019,193,123,14131,4294963665,8001,176,363,346,4294966703,4294966703,4294966703
419364852,6466266,6475509,14102,4830,6675,4294967123,4294966904,4294967150,11380,7471,10260,4294966954,193,114,14246,4294963690,8075,222,262,356,4294966718,4294966718,4294966718
419370852,6466213,6475537,14121,4817,6605,4294967116,4294966966,4294967133,11312,7427,10204,4294966919,197,133,14225,4294963668,8165,270,223,364,4294966711,4294966711,4294966711
419376839,6466134,6475330,14021,4782,6659,4294967070,4294967036,4294967102,11309,7406,10327,4294966885,167,110,14170,4294963704,8198,350,182,397,4294966725,4294966725,4294966725
419382840,6466094,6475314,14011,4787,6669,4294967037,4294967093,4294967091,11276,7452,10311,4294966864,148,87,14241,4294963742,8197,401,154,426,4294966723,4294966723,4294966723
419388841,6465833,6475109,13997,4808,6571,4294967015,4294967171,4294967049,11201,7458,10437,4294966851,107,102,14234,4294963793,8125,441,195,480,4294966720,4294966720,4294966720
419394844,6465551,6474532,13891,4822,6561,4294966988,4294967245,4294967027,11127,7474,10426,4294966819,6,109,14245,4294963809,8117,454,270,546,4294966717,4294966717,4294966717
419400855,6465646,6474627,13842,4845,6578,4294966961,41,4294967003,11140,7449,10404,4294966835,4294967224,113,14243,4294963861,8012,385,389,540,4294966714,4294966714,4294966714
419406864,6465376,6474288,13740,4804,6573,4294966932,67,4294966985,11048,7442,10420,4294966893,4294967160,147,14251,4294963905,8008,292,539,565,4294966702,4294966702,4294966702
419412852,6465253,6473835,13801,4912,6534,4294966949,71,4294966954,11058,7449,10442,4294966970,4294967106,181,14231,4294963983,8142,191,621,539,4294966717,4294966717,4294966717
419418858,6465140,6473730,13823,4889,6650,4294966961,45,4294966968,11049,7457,10385,4294967053,4294967073,203,14236,4294964023,8101,98,709,551,4294966710,4294966710,4294966710
419424844,6464614,6473023,13703,4896,6523,4294966983,4294967293,4294966946,10992,7517,10358,4294967074,4294967047,186,14284,4294964088,8147,10,741,530,4294966719,4294966719,4294966719
419430851,6464222,6472851,13711,4936,6592,4294966997,4294967238,4294966930,11012,7482,10220,4294967078,4294967046,212,14251,4294964086,8340,4294967176,743,481,4294966715,4294966715,4294966715
419438847,6464318,6472689,13784,4954,6605,4294967029,4294967132,4294966939,11028,7500,10127,4294967087,4294967093,234,14288,4294964028,8433,4294967061,679,441,4294966718,4294966718,4294966718
419444853,6464709,6473176,13779,4956,6507,4294967078,4294967055,4294966949,11096,7512,10265,4294966991,4294967159,240,14277,4294964025,8305,4294967092,577,364,4294966712,4294966712,4294966712
419452848,6463935,6472247,13879,4948,6476,4294967098,4294966994,4294966952,11079,7442,10339,4294966942,4294967229,293,14319,4294963989,8351,4294967216,522,307,4294966719,4294966719,4294966719
419458858,6464377,6473266,13963,5026,6469,4294967143,4294966927,4294966973,11144,7428,10514,4294967015,4294967255,303,14268,4294963988,8462,4294967295,464,287,4294966711,4294966711,4294966711
419466851,6464334,6472409,13971,5079,6552,4294967198,4294966923,4294967067,11145,7430,10561,4294967076,4294967286,320,14187,4294963922,8607,98,420,282,4294966716,4294966716,4294966716
419472857,6464503,6473078,13959,5100,6648,4294967243,4294966913,4294967115,11156,7535,10463,4294967061,4294967267,321,14145,4294963812,8500,161,390,236,4294966715,4294966715,4294966715
419478850,6464504,6473031,14039,5102,6474,4294967276,4294966972,4294967152,11193,7524,10445,4294967046,4294967285,281,14236,4294963838,8358,238,374,227,4294966717,4294966717,4294966717
419484850,6464367,6473130,14069,5063,6541,4294967268,4294967006,4294967186,11175,7479,10371,4294966937,10,266,14218,4294963832,8313,308,374,223,4294966716,4294966716,4294966716
419490850,6464413,6472986,14007,5108,6586,4294967287,4294967047,4294967187,11224,7432,10380,4294966930,19,186,14284,4294963843,8280,297,406,212,4294966714,4294966714,4294966714
419496832,6464510,6473138,13972,5040,6627,4294967267,4294967067,4294967172,11202,7379,10416,4294966986,58,122,14251,4294963845,8365,207,432,197,4294966722,4294966722,4294966722
419502849,6464058,6472791,13993,5068,6646,4294967220,4294967049,4294967157,11198,7357,10399,4294967069,30,87,14198,4294963811,8412,88,454,213,4294966717,4294966717,4294966717
419508838,6464397,6473228,13952,4993,6680,4294967138,4294967071,4294967125,11143,7319,10303,4294967074,17,37,14140,4294963710,8484,49,404,205,4294966722,4294966722,4294966722
419514866,6464081,6472935,13945,4925,6634,4294967085,4294967035,4294967093,11241,7312,10289,4294967109,27,8,14089,4294963645,8464,30,305,190,4294966706,4294966706,4294966706
419520858,6464341,6473059,13964,4905,6539,4294967060,4294967041,4294967059,11211,7267,10255,4294967134,79,19,14015,4294963643,8601,76,238,154,4294966711,4294966711,4294966711
419526844,6464005,6472850,13918,4870,6557,4294966988,4294967053,4294967026,11197,7343,10252,4294967156,120,36,14045,4294963727,8509,156,170,125,4294966721,4294966721,4294966721
419532851,6463987,6472769,13917,4839,6495,4294966991,4294967034,4294967055,11150,7338,10194,4294967212,133,65,14051,4294963801,8428,211,175,139,4294966719,4294966719,4294966719
419538833,6464115,6472741,13947,4862,6431,4294966980,4294967056,4294967063,11199,7335,10228,4294967214,102,86,14030,4294963901,8399,248,170,97,4294966726,4294966726,4294966726
419544851,6464218,6472988,13945,4785,6408,4294967013,4294967117,4294967065,11197,7363,10194,4294967198,104,90,14027,4294963952,8155,260,259,112,4294966712,4294966712,4294966712
419550838,6464300,6473115,13900,4833,6451,4294967074,4294967183,4294967071,11165,7281,10208,4294967174,99,116,14075,4294963972,8183,301,274,129,4294966722,4294966722,4294966722
419556843,6464488,6473255,13860,4800,6451,4294967124,4294967221,4294967091,11204,7298,10265,4294967210,132,155,14068,4294963976,8189,313,294,158,4294966719,4294966719,4294966719
419562843,6464424,6473091,13910,4847,6524,4294967192,4294967259,4294967100,11215,7306,10231,4294967223,122,183,14100,4294963940,8213,366,258,156,4294966718,4294966718,4294966718
419568849,6464263,6472913,13808,4898,6559,4294967223,4294967268,4294967123,11248,7249,10232,4294967223,167,207,14243,4294963903,8256,369,201,156,4294966719,4294966719,4294966719
419574851,6464267,6472856,13826,4938,6696,5,31,4294967134,11215,7309,10246,4294967268,224,211,14161,4294963821,8277,418,130,174,4294966716,4294966716,4294966716
419580852,6464146,6472883,13897,4944,6603,49,32,4294967188,11218,7295,10267,0,250,228,14229,4294963886,8382,475,77,181,4294966718,4294966718,4294966718
419586842,6464219,6472980,13838,5009,6549,95,34,4294967229,11190,7321,10296,40,313,188,14251,4294963874,8303,547,54,174,4294966723,4294966723,4294966723
419592841,6463947,6472787,13898,4937,6633,130,31,4294967244,11226,7275,10275,90,355,199,14240,4294963801,8297,642,53,202,4294966720,4294966720,4294966720
419598842,6464141,6473010,13935,4922,6569,178,9,4294967262,11194,7314,10220,167,392,178,14297,4294963897,8360,717,93,244,4294966723,4294966723,4294966723
419604842,6464406,6473338,13885,4927,6610,168,45,4294967250,11218,7364,10228,131,405,169,14209,4294963895,8266,751,150,241,4294966721,4294966721,4294966721
419610846,6463831,6472766,13894,4949,6647,201,66,4294967265,11210,7401,10331,164,429,138,14244,4294963940,8234,806,180,255,4294966720,4294966720,4294966720
419616847,6463833,6472641,13914,4914,6675,191,78,4294967289,11232,7396,10278,121,516,176,14249,4294963988,8257,847,252,310,4294966717,4294966717,4294966717
419622850,6463978,6472674,13921,4935,6614,219,111,8,11236,7362,10241,61,507,173,14259,4294963982,8303,837,309,352,4294966717,4294966717,4294966717
419628850,6464018,6472885,13954,4921,6671,237,157,20,11181,7411,10213,4294967266,506,182,14196,4294963997,8214,767,381,380,4294966716,4294966716,4294966716
419634854,6463951,6472764,13999,4896,6640,242,224,17,11187,7433,10281,4294967272,523,207,14177,4294963995,8151,694,467,399,4294966715,4294966715,4294966715
419640841,6464153,6472770,14001,4950,6618,276,268,30,11226,7372,10232,4294967278,594,208,14194,4294964007,8187,673,549,394,4294966721,4294966721,4294966721
419646838,6464381,6473059,13999,4932,6610,316,345,47,11191,7374,10293,10,625,204,14167,4294964012,8083,649,603,408,4294966723,4294966723,4294966723
419652843,6464386,6472923,14033,4853,6647,330,406,62,11245,7367,10325,19,655,188,14151,4294963991,8013,591,658,403,4294966717,4294966717,4294966717
419658849,6464304,6472884,13993,4790,6618,311,462,40,11215,7331,10328,89,675,196,14144,4294964033,7967,631,654,409,4294966717,4294966717,4294966717
419664839,6464082,6472739,14020,4833,6612,304,514,33,11227,7309,10303,54,682,185,14160,4294964040,8011,664,654,433,4294966725,4294966725,4294966725
419670851,6464021,6472744,13948,4843,6675,252,528,6,11196,7215,10267,4294967275,674,179,14162,4294964010,8013,669,646,425,4294966713,4294966713,4294966713
419676863,6464012,6472341,13913,4837,6622,205,523,2,11226,7246,10239,4294967265,665,169,14234,4294964069,8039,578,663,370,4294966710,4294966710,4294966710
419682831,6463831,6472065,13888,4836,6632,142,489,4294967291,11250,7297,10252,4294967292,627,181,14171,4294964000,8055,496,656,377,4294966729,4294966729,4294966729
419688844,6463593,6471949,13894,4874,6623,105,444,4294967259,11261,7291,10259,4294967263,637,172,14172,4294963955,8090,410,655,322,4294966717,4294966717,4294966717
419694838,6463789,6472005,13905,4894,6628,99,385,4294967263,11231,7318,10246,4294967225,574,206,14166,4294963933,8120,380,635,305,4294966724,4294966724,4294966724
419700838,6463943,6472080,13876,4877,6570,71,346,4294967262,11326,7373,10256,4294967207,537,207,14194,4294963891,8116,375,617,245,4294966722,4294966722,4294966722
419706840,6463764,6472195,13840,4887,6546,86,312,4294967236,11249,7274,10268,4294967174,469,228,14189,4294963857,8148,371,634,180,4294966721,4294966721,4294966721
419712847,6464133,6472395,13816,4865,6607,65,283,4294967175,11296,7258,10311,4294967092,441,165,14197,4294963753,8204,375,594,112,4294966720,4294966720,4294966720
419718838,6464192,6472391,13846,4836,6551,51,291,4294967193,11307,7274,10370,4294966996,420,188,14218,4294963763,8171,438,604,80,4294966721,4294966721,4294966721
419724853,6463457,6472290,13873,4877,6584,43,280,4294967153,11270,7233,10322,4294966968,385,152,14192,4294963745,8077,476,640,32,4294966713,4294966713,4294966713
419730837,6463463,6473048,13843,4808,6465,28,302,4294967136,11258,7275,10380,4294966884,317,115,14210,4294963755,8136,505,686,6,4294966723,4294966723,4294966723
419736837,6464373,6473444,13847,4848,6514,13,323,4294967111,11303,7335,10370,4294966849,285,140,14234,4294963770,8195,544,731,10,4294966723,4294966723,4294966723
419742849,6466615,6474881,13849,4867,6546,4294967294,328,4294967085,11279,7295,10439,4294966844,268,165,14224,4294963787,8237,563,735,27,4294966715,4294966715,4294966715
419748849,6469898,6477610,13927,4856,6668,4294967293,305,4294967065,11262,7291,10425,4294966869,270,180,14209,4294963786,8171,570,711,52,4294966716,4294966716,4294966716
419754845,6471068,6480240,13902,4865,6687,4294967291,275,4294967044,11248,7277,10403,4294966903,234,200,14250,4294963829,8214,606,759,143,4294966721,4294966721,4294966721
419760833,6466936,6475553,13893,4855,6709,4294967253,222,4294967039,11361,7254,10394,4294966941,275,216,14266,4294963822,8213,609,779,193,4294966725,4294966725,4294966725
419766840,6462491,6469064,13821,4872,6787,4294967267,164,4294967054,11397,7270,10353,4294967004,327,252,14197,4294963887,8094,633,799,282,4294966719,4294966719,4294966719
419772834,6459909,6467826,13846,4893,6779,4294967267,142,4294967053,11320,7255,10436,4294967014,312,254,14220,4294963935,8183,628,844,355,4294966727,4294966727,4294966727
419778855,6460409,6469509,13960,4977,6679,4294967235,110,4294967063,11350,7238,10473,4294967027,290,226,14219,4294963929,8132,649,873,397,4294966712,4294966712,4294966712
419784840,6461545,6470460,13990,4921,6679,4294967238,56,4294967084,11381,7169,10564,4294966996,313,238,14207,4294963944,8172,633,943,442,4294966721,4294966721,4294966721
419790848,6462809,6471756,13973,4998,6684,4294967268,2,4294967110,11364,7243,10473,4294967015,365,223,14150,4294963969,8227,581,1005,473,4294966717,4294966717,4294966717
419796845,6463391,6472311,13953,4953,6615,4294967261,9,4294967082,11302,7163,10514,4294966948,289,201,14146,4294963974,8351,520,997,501,4294966719,4294966719,4294966719
419802844,6463731,6472552,14082,4965,6562,4294967286,11,4294967096,11254,7167,10607,4294966878,252,178,14076,4294963931,8323,474,1002,503,4294966717,4294966717,4294966717
419808854,6463818,6472589,14027,4910,6578,4294967266,29,4294967120,11137,7089,10588,4294966922,314,188,14026,4294963944,8406,431,1025,456,4294966717,4294966717,4294966717
419814861,6463999,6472673,13923,4861,6625,4294967270,85,4294967098,11186,7178,10531,4294966962,354,167,14010,4294964012,8418,347,1011,441,4294966711,4294966711,4294966711
419820849,6464354,6472991,13913,4894,6725,4294967276,125,4294967043,11140,7118,10496,4294966934,369,161,13953,4294964017,8531,256,984,408,4294966717,4294966717,4294966717
419826848,6464268,6473060,13799,4912,6852,4294967262,205,4294967017,11129,7163,10570,4294966906,326,151,13931,4294963985,8404,171,955,354,4294966715,4294966715,4294966715
419832842,6464230,6472950,13676,4905,6913,4294967192,250,4294966969,11097,7045,10687,4294966902,280,150,13985,4294963991,8263,160,987,330,4294966723,4294966723,4294966723
419838852,6464511,6473092,13644,4946,7058,4294967094,253,4294966971,11041,7047,10775,4294966926,203,152,13947,4294964039,8338,178,1020,320,4294966715,4294966715,4294966715
419844859,6464884,6473589,13683,4974,7043,4294967042,154,4294966956,11073,7079,10785,4294967014,147,168,13935,4294964026,8313,201,1040,332,4294966706,4294966706,4294966706
419850847,6464752,6473546,13714,5043,6994,4294967029,1,4294967008,11082,7088,10761,4294967032,124,162,13924,4294963985,8471,255,1031,308,4294966714,4294966714,4294966714
419856849,6464947,6473607,13777,5049,6839,4294967025,4294967128,4294967055,11091,7076,10615,4294966945,97,143,13869,4294963928,8583,334,998,290,4294966716,4294966716,4294966716
419862852,6465308,6473974,13840,5092,6698,4294967049,4294967044,4294967119,11125,7079,10454,4294966787,47,125,13869,4294963905,8696,373,938,284,4294966713,4294966713,4294966713
419868849,6465521,6474210,13909,5098,6646,4294967122,4294967022,4294967144,11245,7014,10286,4294966703,8,108,13868,4294963961,8607,378,863,265,4294966715,4294966715,4294966715
419874842,6465545,6474381,13901,5043,6667,4294967122,4294967099,4294967144,11256,7075,10256,4294966659,7,114,13798,4294963941,8632,273,845,316,4294966719,4294966719,4294966719
419880847,6465624,6474413,13866,5027,6642,4294967107,4294967218,4294967172,11302,7070,10340,4294966679,4294967278,75,13828,4294963895,8696,178,783,282,4294966714,4294966714,4294966714
419886853,6465351,6474339,13835,4925,6639,4294967067,68,4294967110,11296,7030,10357,4294966706,4294967271,69,13802,4294963798,8654,53,729,254,4294966717,4294966717,4294966717
419892836,6465602,6474608,13807,4972,6621,4294967042,216,4294967063,11345,7013,10474,4294966761,4294967253,53,13818,4294963777,8758,4294967277,623,230,4294966723,4294966723,4294966723
419898850,6465976,6474998,13744,4949,6529,4294966993,391,4294967034,11279,6938,10611,4294966848,4294967229,42,13821,4294963757,8761,4294967224,487,217,4294966715,4294966715,4294966715
419904848,6465864,6474941,13767,4937,6629,4294966966,564,4294967043,11238,7010,10743,4294966901,4294967171,55,13869,4294963777,8710,4294967221,398,200,4294966718,4294966718,4294966718
419910855,6466071,6475167,13725,4887,6558,4294966987,668,4294967058,11179,6973,10645,4294966971,4294967108,49,13916,4294963826,8690,4294967203,331,205,4294966712,4294966712,4294966712
419916842,6465983,6474924,13654,4898,6698,4294967046,676,4294967075,11171,7041,10612,4294967041,4294967091,81,13961,4294963817,8595,4294967269,309,237,4294966723,4294966723,4294966723
419922848,6466326,6475270,13654,4919,6821,4294967077,606,4294967081,11103,7014,10623,4294967067,4294967149,101,13980,4294963815,8510,58,333,292,4294966716,4294966716,4294966716
419928838,6466193,6475257,13669,4911,6864,4294967147,469,4294967110,11164,6996,10476,4294967061,4294967224,97,14011,4294963813,8415,197,393,296,4294966722,4294966722,4294966722
419934853,6466449,6475395,13703,4969,6912,4294967173,287,4294967117,11172,6965,10493,4294967091,70,135,14103,4294963744,8356,252,498,322,4294966717,4294966717,4294966717
419940841,6466574,6475707,13705,4963,7025,4294967185,84,4294967143,11170,6958,10473,4294967116,166,159,14125,4294963717,8457,258,630,352,4294966721,4294966721,4294966721
419946861,6466571,6475811,13808,5029,6945,4294967165,4294967220,4294967155,11303,6945,10394,4294967182,255,162,14105,4294963761,8493,275,749,377,4294966711,4294966711,4294966711
419952856,6466692,6476086,13851,5003,6959,4294967179,4294967089,4294967163,11295,6965,10462,4294967187,345,165,14105,4294963705,8637,261,832,386,4294966714,4294966714,4294966714
419958852,6466844,6476363,13831,4952,6933,4294967182,4294967020,4294967163,11316,6925,10475,4294967226,335,165,14137,4294963704,8723,265,877,366,4294966715,4294966715,4294966715
419964858,6467103,6476627,13908,5035,6869,4294967199,4294967024,4294967178,11355,6957,10486,4294967174,319,170,14030,4294963746,8803,288,870,357,4294966709,4294966709,4294966709
419970850,6466829,6476485,13881,5043,6856,4294967247,4294967111,4294967127,11385,6963,10595,4294967119,309,174,14083,4294963719,8711,291,877,352,4294966716,4294966716,4294966716
419976838,6466795,6476479,13848,5075,6796,4294967276,4294967199,4294967148,11385,6971,10563,4294967046,321,157,14079,4294963746,8673,286,880,336,4294966721,4294966721,4294966721
419982834,6466874,6476553,13785,5054,6699,4294967294,10,4294967149,11413,6968,10644,4294966992,295,152,14022,4294963772,8654,245,916,320,4294966727,4294966727,4294966727
419988859,6466599,6476350,13763,5019,6817,33,85,4294967139,11457,6991,10584,4294967004,310,161,13987,4294963786,8592,234,897,302,4294966711,4294966711,4294966711
419994855,6466092,6475495,13754,5109,6830,154,145,4294967163,11330,7017,10600,4294966938,281,163,13980,4294963782,8562,198,934,276,4294966710,4294966710,4294966710
420000852,6465865,6475290,13691,5125,6887,105,184,4294967163,11331,6996,10656,4294966913,289,120,13933,4294963765,8583,185,928,272,4294966713,4294966713,4294966713
420006850,6465441,6474700,13671,5078,6874,18,203,4294967119,11235,6941,10543,4294966916,307,108,13896,4294963749,8637,176,875,255,4294966714,4294966714,4294966714
420012853,6464906,6474024,13634,5067,6860,4294967228,201,4294967089,11241,6912,10507,4294966948,325,94,13850,4294963760,8611,214,822,271,4294966714,4294966714,4294966714
420018858,6464862,6473410,13601,5044,6861,4294967178,197,4294967087,11198,6920,10514,4294966999,339,116,13827,4294963746,8626,264,751,252,4294966712,4294966712,4294966712
420024830,6464676,6473243,13675,5018,6795,4294967131,200,4294967087,11223,6850,10496,4294967066,335,106,13801,4294963768,8762,331,638,249,4294966726,4294966726,4294966726
420030845,6464154,6473050,13696,5010,6904,4294967147,164,4294967076,11206,6893,10517,4294967095,330,83,13799,4294963736,8745,379,572,249,4294966717,4294966717,4294966717
420036857,6464056,6472667,13698,4981,6877,4294967178,155,4294967065,11258,6858,10565,4294967133,338,80,13731,4294963738,8828,395,474,259,4294966711,4294966711,4294966711
420042842,6463880,6472452,13742,4925,6933,4294967211,164,4294967060,11199,6941,10556,4294967214,325,66,13693,4294963717,8920,418,398,252,4294966722,4294966722,4294966722
420048843,6463512,6472088,13785,5009,6868,130,149,4294967093,11264,6902,10577,4294967201,361,68,13727,4294963696,8946,439,335,290,4294966718,4294966718,4294966718
420054845,6463491,6471986,13700,5040,6947,56,192,4294967046,11247,6937,10501,4294967178,382,75,13764,4294963730,8862,448,264,288,4294966719,4294966719,4294966719
420060829,6463720,6472307,13731,4958,6893,4294967287,229,4294967033,11191,6819,10587,4294967168,384,119,13773,4294963762,8730,519,243,317,4294966725,4294966725,4294966725
420066868,6463682,6472410,13735,4991,6911,8,258,4294967045,11232,6799,10698,4294967135,422,150,13784,4294963788,8643,578,298,337,4294966705,4294966705,4294966705
420072858,6463810,6472386,13776,5002,6896,0,262,4294967052,11203,6741,10811,4294967231,387,147,13858,4294963788,8748,588,309,360,4294966711,4294966711,4294966711
420078856,6463852,6472265,13716,5008,6971,4,244,4294967086,11159,6717,10839,4294967272,343,170,13824,4294963815,8812,537,377,462,4294966711,4294966711,4294966711
420084856,6463545,6472035,13694,4991,6972,4294967294,184,4294967108,11172,6858,10724,4294967274,334,160,13610,4294963745,8955,561,335,432,4294966710,4294966710,4294966710
420090844,6463384,6471851,13717,4990,6897,12,143,4294967132,11175,6849,10694,4294967170,327,166,13673,4294963721,8808,600,340,442,4294966717,4294966717,4294966717
420096858,6463686,6472209,13760,4983,6902,25,111,4294967144,11179,6881,10542,4294967072,287,168,13640,4294963705,8754,624,355,447,4294966714,4294966714,4294966714
420102858,6463844,6472364,13802,4934,6839,36,111,4294967138,11202,6793,10542,4294967006,226,116,13613,4294963764,8649,591,367,416,4294966710,4294966710,4294966710
420108848,6463922,6472676,13698,4928,6941,8,94,4294967091,11288,6808,10559,4294966998,206,133,13593,4294963769,8657,531,416,430,4294966717,4294966717,4294966717
420114842,6464034,6472743,13729,4919,6925,4294967292,92,4294967062,11259,6774,10575,4294967057,149,131,13603,4294963719,8599,376,435,422,4294966723,4294966723,4294966723
420120831,6464262,6472793,13683,4907,6839,4294967252,140,4294967033,11244,6802,10656,4294967059,108,149,13566,4294963728,8687,260,426,447,4294966729,4294966729,4294966729
420126835,6464062,6472701,13702,4884,6866,4294967217,229,4294966958,11288,6773,10648,4294967071,48,120,13607,4294963684,8640,165,408,446,4294966724,4294966724,4294966724
420132846,6463635,6472307,13629,4853,6839,4294967172,316,4294966958,11235,6747,10680,4294967103,4294967282,106,13699,4294963690,8665,78,351,464,4294966714,4294966714,4294966714
420138840,6463824,6472269,13643,4880,6946,4294967174,396,4294966949,11361,6782,10703,4294967105,4294967231,132,13750,4294963667,8688,75,282,438,4294966721,4294966721,4294966721
420144853,6463949,6472582,13613,4905,6891,4294967166,458,4294966954,11328,6739,10624,4294967143,4294967209,138,13823,4294963717,8685,61,241,411,4294966716,4294966716,4294966716
420150828,6463539,6472220,13633,4968,6927,4294967197,481,4294966978,11196,6723,10720,4294967207,4294967216,172,13854,4294963665,8598,117,240,412,4294966730,4294966730,4294966730
420156849,6463690,6472240,13610,4935,7010,4294967248,481,4294967019,11270,6711,10734,4294967252,4294967254,148,13923,4294963689,8590,178,219,411,4294966715,4294966715,4294966715
420162837,6463973,6472390,13612,4981,7023,4294967291,406,4294967051,11288,6711,10636,4294967247,30,155,13990,4294963773,8538,246,218,403,4294966721,4294966721,4294966721
420168841,6463984,6472217,13640,5040,7025,22,343,4294967089,11151,6759,10586,5,85,164,14026,4294963762,8633,316,219,409,4294966724,4294966724,4294966724
420174856,6463761,6472332,13631,5058,7083,56,301,4294967128,11165,6740,10676,46,162,131,14005,4294963732,8706,383,233,385,4294966712,4294966712,4294966712
420180854,6463660,6472072,13633,5049,7090,81,271,4294967132,11199,6692,10666,119,234,129,14023,4294963737,8834,487,191,379,4294966716,4294966716,4294966716
420186843,6463837,6472223,13630,5129,6989,70,250,4294967165,11180,6675,10553,192,284,126,14005,4294963689,8889,523,194,397,4294966717,4294966717,4294966717
420192841,6463986,6472510,13680,5147,7044,69,250,4294967185,11159,6719,10615,254,365,103,13969,4294963720,8820,598,151,357,4294966721,4294966721,4294966721
420198854,6464142,6472810,13703,5180,6977,72,264,4294967198,11214,6691,10501,298,429,111,13948,4294963735,8856,617,150,330,4294966711,4294966711,4294966711
420204833,6464015,6472706,13728,5137,6941,110,290,4294967211,11179,6741,10547,275,469,49,13936,4294963763,8780,604,173,324,4294966728,4294966728,4294966728
420210848,6463686,6472468,13650,5174,7047,105,340,4294967190,11171,6748,10524,226,445,12,13898,4294963722,8779,575,190,278,4294966715,4294966715,4294966715
420216849,6463897,6472537,13625,5174,7069,57,351,4294967202,11218,6796,10512,196,411,4294967271,13855,4294963719,8648,511,227,266,4294966716,4294966716,4294966716
420222852,6463731,6472631,13654,5144,6967,104,334,4294967198,11295,6803,10585,197,419,4294967273,13898,4294963783,8675,419,293,211,4294966715,4294966715,4294966715
420228837,6463475,6472369,13563,5138,7067,20,347,4294967177,11254,6789,10599,239,399,4294967256,13859,4294963763,8617,373,388,198,4294966724,4294966724,4294966724
420234858,6463679,6472512,13544,5160,7047,4294967257,341,4294967163,11296,6780,10584,209,356,4294967224,13822,4294963780,8652,318,423,201,4294966711,4294966711,4294966711
420240850,6464033,6472604,13611,5101,7035,4294967248,327,4294967185,11313,6883,10652,212,349,4294967251,13889,4294963791,8569,233,475,201,4294966717,4294966717,4294966717
420246839,6464117,6472665,13536,5109,7041,4294967235,295,4294967215,11309,6859,10674,212,314,4294967254,13834,4294963797,8574,204,502,176,4294966724,4294966724,4294966724
420252855,6463747,6472252,13586,4984,7186,4294967247,248,4294967223,11358,6830,10626,223,334,4294967256,13835,4294963863,8594,186,508,147,4294966712,4294966712,4294966712
420258850,6463490,6471792,13645,5012,7067,4294967294,238,4294967257,11425,6838,10657,214,349,4294967240,13845,4294963793,8568,197,577,170,4294966717,4294966717,4294966717
420264864,6463907,6472251,13634,5041,7042,4294967258,153,4294967259,11340,6856,10754,222,374,4294967262,13848,4294963757,8637,170,492,191,4294966708,4294966708,4294966708
420270842,6463996,6472426,13690,4975,7038,4294967242,63,4294967262,11362,6843,10779,227,331,4294967251,13851,4294963785,8678,147,526,188,4294966721,4294966721,4294966721
420276841,6463970,6472306,13638,5021,7040,4294967235,11,16,11344,6897,10784,157,347,4294967259,13832,4294963787,8717,159,466,156,4294966724,4294966724,4294966724
420282837,6463809,6472216,13657,4957,7080,4294967242,4294967276,4294967276,11333,6885,10739,129,336,4294967252,13886,4294963769,8692,201,473,166,4294966725,4294966725,4294966725
420288877,6463652,6472133,13639,5000,6998,4294967223,21,4294967289,11293,6851,10676,89,363,4294967266,13873,4294963714,8672,227,423,170,4294966698,4294966698,4294966698
420294847,6463745,6472001,13679,4995,6950,4294967237,55,4294967287,11236,6823,10650,60,373,4294967257,13879,4294963670,8608,267,392,195,4294966720,4294966720,4294966720
420300838,6464083,6472224,13583,5006,6993,4294967237,103,4294967274,11261,6808,10647,29,410,4294967284,13871,4294963643,8650,300,388,192,4294966725,4294966725,4294966725
420306834,6464207,6472418,13582,4996,6966,4294967244,126,4294967239,11197,6824,10555,41,419,5,13898,4294963663,8715,329,365,213,4294966728,4294966728,4294966728
420312842,6464337,6472345,13552,5028,6967,4294967283,122,4294967238,11207,6797,10486,32,443,52,13895,4294963605,8765,311,363,232,4294966720,4294966720,4294966720
420318864,6464443,6472378,13526,5178,7053,99,108,4294967237,11219,6835,10522,9,443,40,13906,4294963614,8648,315,367,224,4294966705,4294966705,4294966705
420324865,6464360,6472358,13477,5145,7169,4294967266,103,4294967148,11155,6808,10572,4294967245,438,71,13842,4294963617,8683,369,353,230,4294966709,4294966709,4294966709
420330859,6463953,6472263,13503,5126,7114,4294967228,62,4294967138,11158,6785,10594,4294967239,403,30,13848,4294963567,8830,373,346,226,4294966711,4294966711,4294966711
420336845,6463992,6472504,13463,5111,7112,4294967183,23,4294967135,11239,6766,10582,4294967247,356,12,13846,4294963589,8811,362,375,239,4294966719,4294966719,4294966719
420342843,6463982,6473546,13501,5138,7200,4294967184,4294967244,4294967150,11273,6772,10557,4294967288,291,15,13831,4294963596,8816,403,382,235,4294966720,4294966720,4294966720
420348859,6464544,6473857,13537,5163,7131,4294967174,4294967179,4294967158,11287,6780,10544,4294967263,301,4294967289,13781,4294963618,8855,445,382,247,4294966715,4294966715,4294966715
420354840,6466481,6474898,13623,5208,7032,4294967185,4294967136,4294967124,11273,6782,10584,4294967244,295,4294967273,13728,4294963606,8897,431,361,240,4294966722,4294966722,4294966722
420360854,6469243,6476054,13653,5116,7028,4294967208,4294967142,4294967144,11323,6762,10581,4294967212,277,4294967246,13779,4294963646,8833,438,390,218,4294966714,4294966714,4294966714
420366850,6471514,6479199,13698,5071,7066,4294967218,4294967146,4294967158,11351,6700,10603,4294967266,295,4294967236,13757,4294963632,8970,400,410,207,4294966716,4294966716,4294966716
420372871,6467862,6476544,13646,5090,7062,4294967226,4294967220,4294967143,11283,6703,10545,32,350,4294967228,13779,4294963649,8931,324,441,203,4294966702,4294966702,4294966702
420378840,6463217,6469798,13617,5078,7139,4294967241,4294967259,4294967152,11353,6721,10536,135,397,4294967236,13765,4294963669,8922,299,451,207,4294966723,4294966723,4294966723
420384850,6459837,6467072,13543,5032,7105,4294967235,14,4294967151,11335,6685,10608,214,483,4294967196,13759,4294963687,8806,310,441,192,4294966713,4294966713,4294966713
420390851,6459762,6468839,13631,5050,7047,4294967209,37,4294967121,11341,6597,10560,307,535,4294967185,13735,4294963658,8807,342,393,205,4294966715,4294966715,4294966715
420396850,6460419,6469364,13647,5034,7010,4294967197,57,4294967096,11373,6526,10600,437,619,4294967168,13756,4294963721,8814,381,360,190,4294966719,4294966719,4294966719
420402840,6461241,6469818,13642,5053,7076,4294967184,32,4294967074,11333,6632,10540,543,702,4294967173,13751,4294963719,8752,404,367,204,4294966721,4294966721,4294966721
420408852,6462410,6471306,13610,5001,6955,4294967191,43,4294967026,11308,6721,10598,571,705,4294967140,13761,4294963667,8851,423,330,228,4294966711,4294966711,4294966711
420414839,6463670,6472363,13688,5084,6935,4294967185,47,4294967032,11229,6708,10770,481,695,4294967148,13715,4294963645,8787,434,323,201,4294966721,4294966721,4294966721
420420844,6464053,6472633,13672,4997,6946,4294967187,37,4294967019,11276,6748,10798,493,686,4294967172,13758,4294963677,8797,445,298,190,4294966717,4294966717,4294966717
420426865,6464139,6472961,13605,5015,7121,4294967191,61,4294966958,11184,6840,10713,453,731,4294967116,13805,4294963656,8761,459,276,174,4294966702,4294966702,4294966702
420432844,6464128,6472641,13538,5034,7162,4294967206,96,4294966932,11259,6840,10514,449,751,4294967120,13779,4294963679,8851,455,232,161,4294966717,4294966717,4294966717
420438854,6464340,6472683,13448,5052,7170,4294967205,142,4294966918,11235,6833,10457,538,734,4294967184,13744,4294963638,8843,399,180,127,4294966717,4294966717,4294966717
420444856,6464502,6472957,13397,5025,7236,4294967157,198,4294966899,11220,6754,10413,581,846,4294967240,13744,4294963639,8617,401,168,155,4294966711,4294966711,4294966711
420450847,6464604,6472955,13348,5077,7188,4294967128,206,4294966890,11324,6800,10570,778,857,4294967273,13773,4294963686,8674,452,210,156,4294966719,4294966719,4294966719
420456853,6464890,6473017,13426,5150,7254,4294967127,150,4294966906,11311,6853,10819,983,821,18,13788,4294963690,8547,519,244,183,4294966718,4294966718,4294966718
420462849,6464990,6473224,13471,5163,7191,4294967131,17,4294966944,11331,6864,10780,1082,789,34,13833,4294963728,8704,630,261,195,4294966715,4294966715,4294966715
420468865,6465011,6473519,13560,5183,7096,4294967144,4294967115,4294966988,11279,6895,10862,937,689,62,13827,4294963701,8937,729,295,202,4294966705,4294966705,4294966705
420474848,6465067,6473685,13654,5119,7079,4294967152,4294966977,4294967006,11349,6815,10749,667,508,39,13761,4294963752,8894,785,302,213,4294966717,4294966717,4294966717
420480850,6465454,6474108,13732,5158,6994,4294967190,4294966857,4294967018,11342,6889,10705,388,353,34,13730,4294963714,8917,798,265,200,4294966714,4294966714,4294966714
420486840,6465169,6473985,13698,5073,7015,4294967172,4294966816,4294967023,11397,6814,10646,199,237,4294967293,13724,4294963783,8829,754,270,200,4294966721,4294966721,4294966721
420492838,6465110,6473831,13739,5020,7028,4294967204,4294966881,4294966993,11387,6903,10584,128,162,4294967242,13781,4294963753,8921,662,254,215,4294966726,4294966726,4294966726
420498865,6465534,6474214,13720,4996,6900,4294967207,4294966998,4294966961,11393,6867,10588,181,166,4294967228,13819,4294963775,8916,538,265,207,4294966704,4294966704,4294966704
420504838,6465742,6474403,13688,4965,6999,4294967195,4294967163,4294966955,11279,6815,10730,269,177,4294967224,13844,4294963786,8849,399,232,222,4294966724,4294966724,4294966724
420510835,6465794,6474500,13599,5032,6940,4294967167,41,4294966933,11243,6915,10763,411,185,4294967232,13828,4294963768,8872,287,150,217,4294966726,4294966726,4294966726
420516839,6466371,6475114,13546,4945,6892,4294967147,220,4294966941,11143,6901,10841,557,191,4294967275,13830,4294963789,8815,243,35,223,4294966722,4294966722,4294966722
420522849,6466503,6475231,13489,4986,7001,4294967144,357,4294966961,11079,6885,10858,657,171,4294967259,13822,4294963787,8843,264,4294967249,251,4294966714,4294966714,4294966714
420528853,6466402,6475054,13446,4997,7046,4294967156,416,4294966935,11040,6997,10805,701,174,4294967245,13850,4294963812,8760,346,4294967194,256,4294966715,4294966715,4294966715
420534839,6466231,6474840,13428,5003,7134,4294967218,380,4294966999,11039,6973,10759,756,243,19,13850,4294963779,8742,484,4294967151,282,4294966722,4294966722,4294966722
420540841,6466576,6475324,13448,5061,7162,4294967238,266,4294967000,11051,6926,10615,741,319,34,13868,4294963784,8654,589,4294967185,303,4294966721,4294966721,4294966721
420546849,6466758,6475607,13504,5190,7251,4294967292,106,4294967052,11092,6957,10522,684,450,20,13914,4294963771,8613,652,4294967200,341,4294966718,4294966718,4294966718
420552838,6467026,6476028,13537,5215,7270,3,4294967229,4294967080,11161,6974,10526,709,567,76,13938,4294963761,8534,645,4294967261,339,4294966724,4294966724,4294966724
420558833,6467376,6476615,13603,5186,7270,4294967294,4294967116,4294967103,11179,6983,10535,707,684,112,13999,4294963777,8624,627,19,340,4294966728,4294966728,4294966728
420564848,6467541,6476748,13627,5238,7368,23,4294967030,4294967134,11252,6924,10493,715,738,122,13948,4294963758,8674,578,48,368,4294966717,4294966717,4294966717
420570854,6467529,6476830,13615,5209,7235,6,4294966973,4294967157,11312,6951,10569,708,748,121,13974,4294963703,8687,527,88,318,4294966714,4294966714,4294966714
420576834,6467384,6476810,13625,5171,7195,16,4294966962,4294967167,11365,6970,10536,690,718,87,14010,4294963746,8751,532,92,307,4294966728,4294966728,4294966728
420582862,6467410,6476838,13703,5223,7157,4294967285,4294966980,4294967209,11416,6950,10531,693,718,79,13958,4294963758,8799,523,109,292,4294966709,4294966709,4294966709
420588841,6466960,6476455,13681,5206,7196,4294967288,4294967023,4294967210,11416,6925,10510,677,693,53,13888,4294963795,8709,519,185,264,4294966724,4294966724,4294966724
420594840,6466591,6476000,13630,5213,7243,4294967227,4294967017,4294967212,11403,6938,10565,684,683,34,13956,4294963789,8595,481,256,272,4294966723,4294966723,4294966723
420600838,6466413,6475751,13635,5161,7166,4294967196,4294967084,4294967193,11385,6973,10575,671,660,39,13905,4294963832,8511,432,318,255,4294966723,4294966723,4294966723
420606848,6466063,6475290,13635,5180,7137,4294967205,4294967113,4294967208,11397,6944,10578,650,627,44,13857,4294963857,8644,390,369,275,4294966719,4294966719,4294966719
420612842,6465721,6474696,13592,5163,6980,4294967178,4294967168,4294967176,11398,6971,10715,633,623,68,13827,4294963819,8627,382,427,241,4294966722,4294966722,4294966722
420618831,6465650,6474338,13594,5151,7028,4294967194,4294967248,4294967156,11255,6994,10734,578,602,109,13801,4294963857,8614,383,440,252,4294966729,4294966729,4294966729
420624840,6465554,6474274,13562,5183,6995,4294967176,9,4294967125,11257,6973,10730,522,670,89,13819,4294963819,8599,368,477,241,4294966723,4294966723,4294966723
420630854,6465059,6474016,13555,5069,7076,4294967188,59,4294967101,11072,6974,10776,553,595,190,13778,4294963820,8621,265,495,214,4294966712,4294966712,4294966712
420636845,6465214,6473971,13467,5092,7071,4294967162,104,4294967050,11049,6965,10854,512,533,138,13718,4294963879,8666,287,497,233,4294966717,4294966717,4294966717
420642836,6464966,6473418,13469,5191,7146,4294967126,78,4294967028,10949,6937,10821,446,480,158,13719,4294963809,8687,256,514,220,4294966726,4294966726,4294966726
420648837,6464644,6473212,13439,5181,7131,4294967126,26,4294966986,10949,6948,10839,413,443,133,13736,4294963839,8745,195,491,213,4294966726,4294966726,4294966726
420654841,6464468,6472812,13349,5188,7162,4294967139,4294967272,4294966988,10928,7023,10691,400,467,130,13803,4294963831,8799,122,501,187,4294966720,4294966720,4294966720
420660842,6464627,6472834,13401,5227,7131,4294967145,4294967180,4294966980,10967,7047,10607,339,523,164,13789,4294963833,8906,101,484,169,4294966721,4294966721,4294966721
420666851,6464415,6472736,13383,5219,7202,4294967167,4294967116,4294967004,10938,6997,10516,268,542,120,13779,4294963834,8718,57,464,146,4294966718,4294966718,4294966718
420672851,6464269,6472644,13400,5227,7199,4294967203,4294967094,4294967011,10940,6928,10644,247,553,89,13789,4294963854,8592,40,509,152,4294966715,4294966715,4294966715
420678839,6464304,6472592,13474,5207,7156,4294967240,4294967044,4294967056,10949,6812,10691,264,603,53,13806,4294963931,8554,22,550,156,4294966721,4294966721,4294966721
420684843,6463964,6472368,13501,5276,7165,4294967265,4294967016,4294967090,10985,6912,10870,384,614,64,13828,4294963963,8619,4294967262,651,155,4294966718,4294966718,4294966718
420690844,6464018,6472365,13488,5311,7132,4294967283,4294966953,4294967164,10930,7002,10854,465,586,83,13825,4294964010,8755,4294967194,698,166,4294966722,4294966722,4294966722
420696854,6464328,6472574,13540,5286,7186,1,4294966934,4294967213,10869,7059,10899,422,589,65,13887,4294963895,8907,4294967163,721,195,4294966713,4294966713,4294966713
420702840,6464167,6472284,13570,5260,7138,12,4294966922,4294967262,10962,7101,10804,346,607,52,13792,4294963895,8844,4294967207,757,164,4294966722,4294966722,4294966722
420708841,6463875,6472256,13635,5251,7046,21,4294966948,6,10991,7074,10784,224,603,4294967288,13845,4294963941,8769,53,755,172,4294966720,4294966720,4294966720
420714841,6463773,6472047,13612,5218,7128,2,4294966990,26,11015,7053,10752,144,553,4294967279,13889,4294963945,8718,153,730,144,4294966722,4294966722,4294966722
420720853,6464021,6472435,13622,5190,7052,19,4294967040,4294967292,10987,7036,10772,128,487,4294967236,13866,4294963959,8785,155,731,158,4294966713,4294966713,4294966713
420726853,6464047,6472700,13587,5224,7175,1,4294967093,4294967271,11066,7042,10869,143,438,4294967216,13814,4294963923,8795,69,725,158,4294966717,4294966717,4294966717
420732847,6464117,6472771,13633,5198,7160,4294967243,4294967170,4294967222,11069,6949,10849,141,406,4294967218,13780,4294963846,8935,4294967258,695,146,4294966718,4294966718,4294966718
420738841,6464023,6472367,13539,5178,7084,4294967212,4294967252,4294967210,11063,7024,10789,172,383,4294967219,13802,4294963748,8859,4294967200,661,115,4294966720,4294966720,4294966720
420744848,6463814,6472158,13477,5183,7101,4294967162,1,4294967149,11116,7009,10745,174,344,4294967216,13753,4294963749,8869,4294967181,599,88,4294966717,4294966717,4294966717
420750871,6463700,6472161,13486,5168,7169,4294967104,47,4294967158,11126,7015,10671,206,319,4294967201,13743,4294963775,8861,4294967213,502,26,4294966702,4294966702,4294966702
420756840,6463976,6472294,13487,5221,7091,4294967103,4,4294967160,11143,6995,10649,233,335,4294967223,13718,4294963761,8937,4294967285,447,0,4294966724,4294966724,4294966724
420762848,6464178,6472375,13482,5276,7117,4294967105,4294967264,4294967185,11110,7014,10751,237,328,4294967237,13755,4294963703,8758,68,428,4294967295,4294966719,4294966719,4294966719
420768847,6464253,6472348,13491,5282,7191,4294967118,4294967152,4294967212,11102,6989,10782,216,309,4294967221,13769,4294963754,8786,136,414,4,4294966717,4294966717,4294966717
420774835,6463911,6472351,13548,5292,7181,4294967115,4294967026,4294967261,11139,7014,10791,203,350,4294967212,13803,4294963754,8786,179,424,37,4294966726,4294966726,4294966726
420780847,6464321,6472552,13548,5277,7190,4294967126,4294966919,15,11131,6985,10764,207,406,4294967201,13812,4294963856,8872,136,479,55,4294966718,4294966718,4294966718
420786857,6464479,6472796,13603,5276,7227,4294967168,4294966845,56,11142,7047,10785,212,429,4294967233,13809,4294963865,8891,65,492,82,4294966713,4294966713,4294966713
420792864,6464417,6472836,13602,5246,7183,4294967164,4294966808,78,11100,7016,10846,193,432,4294967201,13785,4294963828,8833,73,463,94,4294966706,4294966706,4294966706
420798847,6464333,6472801,13699,5350,7176,4294967183,4294966807,100,11085,6988,10889,198,425,4294967190,13786,4294963793,8831,51,486,106,4294966716,4294966716,4294966716
420804856,6464354,6472834,13645,5261,7119,4294967175,4294966845,84,11075,6979,10898,218,436,4294967219,13737,4294963756,8896,88,458,100,4294966716,4294966716,4294966716
420810836,6464423,6472785,13593,5252,7078,4294967185,4294966917,107,11018,6978,10870,270,452,4294967205,13787,4294963741,8943,116,484,135,4294966721,4294966721,4294966721
420816846,6464321,6472572,13610,5283,7062,4294967166,4294966962,98,11062,6992,10870,280,489,4294967193,13788,4294963734,8991,113,477,133,4294966719,4294966719,4294966719
420822848,6464494,6472952,13609,5235,7194,4294967129,4294966993,93,11020,6994,10797,224,507,4294967203,13759,4294963706,9013,133,498,92,4294966717,4294966717,4294966717
420828839,6464066,6472578,13553,5226,7114,4294967136,4294967008,82,11065,6954,10698,126,523,4294967169,13754,4294963766,9004,128,491,98,4294966723,4294966723,4294966723
420834872,6464114,6472622,13539,5217,7094,4294967104,4294966962,56,11040,6964,10703,118,502,4294967161,13706,4294963726,9024,141,520,99,4294966702,4294966702,4294966702
420840838,6464388,6472786,13529,5155,7143,4294967088,4294966913,11,11033,6939,10605,95,516,4294967157,13718,4294963822,9018,168,493,89,4294966723,4294966723,4294966723
420846845,6464393,6473030,13521,5190,7049,4294967104,4294966885,22,11071,7047,10762,90,534,4294967178,13624,4294963799,8895,192,511,88,4294966716,4294966716,4294966716
420852837,6464297,6473066,13534,5222,7042,4294967094,4294966849,6,11071,7005,10762,106,513,4294967146,13636,4294963787,8952,219,512,51,4294966724,4294966724,4294966724
420858854,6464470,6473029,13550,5186,7107,4294967124,4294966870,4294967283,11076,7045,10696,104,445,4294967138,13578,4294963782,8879,223,491,56,4294966710,4294966710,4294966710
420864856,6464700,6473332,13478,5163,7082,4294967132,4294966847,4294967291,11054,7039,10813,117,425,4294967181,13686,4294963758,8943,210,499,45,4294966713,4294966713,4294966713
420870842,6464413,6473031,13488,5161,7103,4294967121,4294966836,16,11086,7013,10771,108,377,4294967184,13674,4294963809,8842,195,488,35,4294966720,4294966720,4294966720
420876840,6464939,6473112,13476,5165,6996,4294967146,4294966850,44,11085,7016,10794,106,347,4294967177,13640,4294963798,8898,157,450,38,4294966721,4294966721,4294966721
420882841,6464984,6473194,13426,5130,7071,4294967129,4294966836,46,11072,6994,10822,105,328,4294967197,13658,4294963754,8974,161,449,57,4294966721,4294966721,4294966721
420888837,6464900,6473191,13437,5164,7031,4294967124,4294966839,62,11048,7005,10746,82,291,4294967182,13681,4294963812,8904,183,413,85,4294966724,4294966724,4294966724
420894835,6464672,6473025,13479,5165,7080,4294967123,4294966791,73,11031,6978,10691,81,286,4294967204,13693,4294963772,8892,231,410,112,4294966727,4294966727,4294966727
420900842,6464597,6472609,13483,5108,7019,4294967077,4294966792,67,11039,6972,10731,91,288,4294967214,13680,4294963791,8837,254,386,146,4294966722,4294966722,4294966722
420906850,6464432,6472535,13503,5113,7115,4294967074,4294966807,71,11098,6946,10735,165,329,4294967244,13674,4294963741,8900,288,355,165,4294966714,4294966714,4294966714
420912838,6464490,6472325,13458,5123,7068,4294967051,4294966824,62,11041,6949,10776,242,336,4294967257,13642,4294963729,9007,276,345,185,4294966723,4294966723,4294966723
420918845,6464527,6472151,13550,5202,7145,4294967068,4294966840,45,11078,6928,10828,282,355,4294967279,13719,4294963709,8953,268,355,219,4294966717,4294966717,4294966717
420924845,6464561,6472338,13596,5194,7134,4294967044,4294966805,46,11057,6964,10912,354,339,8,13666,4294963712,8974,297,321,217,4294966720,4294966720,4294966720
420930866,6464650,6472554,13632,5178,7125,4294967021,4294966846,19,11052,6951,10756,361,365,31,13656,4294963696,9089,333,261,199,4294966706,4294966706,4294966706
420936836,6464582,6472581,13626,5142,7108,4294967038,4294966844,8,11053,6962,10779,390,384,58,13612,4294963706,9039,352,250,170,4294966726,4294966726,4294966726
420942847,6464832,6472637,13626,5173,7167,4294967059,4294966852,27,11041,6975,10785,323,399,63,13663,4294963736,8998,379,212,153,4294966719,4294966719,4294966719
420948861,6464850,6473095,13622,5146,7092,4294967026,4294966849,4294967284,11065,6948,10724,269,437,66,13696,4294963722,8952,392,206,150,4294966708,4294966708,4294966708
420954853,6464545,6473633,13639,5187,7018,4294967027,4294966845,3,11119,6981,10797,222,443,70,13665,4294963708,8892,416,184,149,4294966715,4294966715,4294966715
420960851,6464765,6473669,13694,5170,7054,4294967040,4294966796,5,11032,6967,10837,170,471,63,13725,4294963722,8878,424,176,173,4294966714,4294966714,4294966714
420966846,6466129,6474737,13634,5147,6948,4294967056,4294966790,21,11041,7022,10839,102,501,59,13730,4294963716,8925,406,195,181,4294966716,4294966716,4294966716
420972833,6468759,6476024,13614,5181,7047,4294967070,4294966756,46,11023,6968,10876,46,519,52,13752,4294963717,8855,405,191,196,4294966727,4294966727,4294966727
420978859,6472029,6479130,13640,5165,6996,4294967049,4294966741,62,11084,6983,10758,29,498,31,13757,4294963652,9019,390,206,195,4294966711,4294966711,4294966711
420984867,6471404,6479887,13623,5157,6971,4294967094,4294966729,107,11074,6963,10833,4294967285,519,20,13787,4294963678,8937,352,205,191,4294966703,4294966703,4294966703
420990848,6465957,6473253,13574,5135,7001,4294967096,4294966712,103,11096,7049,10777,5,518,32,13802,4294963618,8968,344,227,186,4294966721,4294966721,4294966721
420996846,6463620,6470183,13531,5111,7127,4294967099,4294966748,112,11129,6950,10794,13,519,14,13751,4294963650,9020,316,201,177,4294966718,4294966718,4294966718
421002835,6460811,6468247,13451,5151,7117,4294967109,4294966758,114,11093,6930,10871,33,460,4294967294,13818,4294963635,9059,329,203,161,4294966727,4294966727,4294966727
421008850,6460592,6469951,13558,5039,7072,4294967080,4294966730,104,11067,6888,10938,27,402,4294967254,13800,4294963712,8968,374,197,164,4294966713,4294966713,4294966713
421014834,6461173,6470038,13576,5076,7030,4294967100,4294966703,116,11114,6873,10834,63,360,4294967240,13780,4294963731,8956,365,199,172,4294966727,4294966727,4294966727
421020839,6462809,6471226,13553,5060,7086,4294967118,4294966654,134,11084,6909,10669,51,316,4294967207,13709,4294963774,9003,320,189,163,4294966724,4294966724,4294966724
421026862,6464113,6472597,13646,5025,6932,4294967110,4294966651,101,11051,6891,10832,10,255,4294967182,13707,4294963699,8964,337,163,197,4294966709,4294966709,4294966709
421032855,6464662,6473187,13684,5083,6883,4294967142,4294966695,108,11061,6838,10921,50,284,4294967183,13698,4294963673,8916,363,147,219,4294966716,4294966716,4294966716
421038848,6465173,6473394,13671,5027,6916,4294967186,4294966689,116,11009,6898,10818,144,336,4294967197,13702,4294963653,8946,414,105,213,4294966718,4294966718,4294966718
421044849,6465266,6473385,13590,4950,6983,4294967225,4294966766,97,11053,6920,10645,168,409,4294967207,13658,4294963707,8978,419,107,208,4294966717,4294966717,4294966717
421050862,6465332,6473468,13583,4991,7106,4294967251,4294966833,47,11044,6866,10621,176,379,4294967220,13695,4294963669,9056,390,91,221,4294966710,4294966710,4294966710
421056832,6465332,6473547,13455,5004,7080,4294967290,4294966928,43,11085,6839,10816,187,380,4294967256,13623,4294963623,8925,371,94,235,4294966728,4294966728,4294966728
421062851,6465299,6473391,13432,4989,7199,4294967162,4294967023,4294967278,11049,6848,10933,181,399,4294967287,13667,4294963643,8829,412,141,223,4294966714,4294966714,4294966714
421068828,6465292,6473230,13497,5049,7176,4294967103,4294967069,4294967264,11034,6827,10984,278,352,16,13685,4294963633,8817,473,194,234,4294966730,4294966730,4294966730
421074846,6465132,6473142,13567,5050,7212,4294967087,4294966998,4,11025,6820,11125,403,293,15,13673,4294963703,8912,544,209,253,4294966718,4294966718,4294966718
421080849,6465103,6473160,13614,5085,7193,4294967110,4294966848,66,10950,6773,11112,432,265,24,13626,4294963630,9136,685,193,224,4294966717,4294966717,4294966717
421086844,6465228,6473291,13674,5082,7051,4294967114,4294966676,73,10971,6753,11015,325,183,4294967282,13545,4294963684,9157,819,144,247,4294966722,4294966722,4294966722
421092841,6465295,6473328,13713,5046,6874,4294967154,4294966578,94,10996,6852,10763,155,121,4294967277,13489,4294963727,9153,843,130,217,4294966721,4294966721,4294966721
421098833,6465200,6473139,13758,5044,6862,4294967190,4294966537,84,11079,6847,10614,38,112,4294967270,13530,4294963714,9057,788,66,216,4294966728,4294966728,4294966728
421104843,6465585,6473622,13723,5017,6829,4294967208,4294966606,68,11077,6839,10560,4294967286,128,4294967223,13536,4294963782,8908,691,88,170,4294966719,4294966719,4294966719
421110847,6465590,6473635,13722,5027,6874,4294967184,4294966709,23,11024,6787,10680,36,138,4294967179,13542,4294963840,8799,473,137,194,4294966715,4294966715,4294966715
421116842,6465744,6473747,13693,4946,6825,4294967142,4294966799,4,11038,6830,10761,106,123,4294967177,13594,4294963776,8809,305,155,167,4294966722,4294966722,4294966722
421122854,6465617,6473619,13667,4975,6814,4294967067,4294966920,4294967204,10971,6874,10853,215,142,4294967156,13626,4294963756,8900,177,91,165,4294966712,4294966712,4294966712
421128861,6465568,6473509,13573,5045,6873,4294967005,4294967060,4294967189,10928,6848,10933,330,99,4294967147,13643,4294963770,8938,165,4294967230,117,4294966707,4294966707,4294966707
421134841,6466037,6474021,13485,5053,6774,4294966951,4294967226,4294967180,10929,6932,10806,442,37,4294967170,13660,4294963721,8947,116,4294967099,129,4294966723,4294966723,4294966723
421140843,6466156,6474082,13521,5110,6875,4294966966,6,4294967211,10888,6965,10904,508,37,4294967187,13630,4294963729,9000,183,4294966971,90,4294966722,4294966722,4294966722
421146836,6466117,6474218,13492,5119,6870,4294967007,20,4294967237,10968,6988,10822,537,44,4294967190,13759,4294963794,8885,234,4294966914,52,4294966726,4294966726,4294966726
421152841,6466307,6474353,13523,5077,7030,4294967097,4294967266,4294967283,10984,6979,10744,548,108,4294967211,13833,4294963678,8926,308,4294966853,68,4294966721,4294966721,4294966721
421158850,6466369,6474605,13635,5068,7005,4294967174,4294967117,24,11042,7064,10765,471,165,4294967244,13886,4294963696,8744,386,4294966886,60,4294966714,4294966714,4294966714
421164855,6466806,6475117,13614,5104,7131,4294967242,4294966975,43,11094,7021,10729,426,233,4294967261,13884,4294963740,8665,369,4294966958,96,4294966710,4294966710,4294966710
421170854,6466951,6475511,13623,5075,7126,4294967267,4294966836,69,11144,7025,10824,383,260,4294967262,13893,4294963649,8745,330,4294967041,110,4294966714,4294966714,4294966714
421176846,6466796,6475392,13672,5039,7176,4294967252,4294966708,81,11171,6991,10861,340,312,2,13873,4294963608,8870,347,4294967107,111,4294966716,4294966716,4294966716
421182841,6466875,6475473,13721,5032,7137,4294967224,4294966615,93,11134,7008,10782,286,247,11,13955,4294963634,8737,354,4294967176,155,4294966721,4294966721,4294966721
421188847,6466824,6475592,13741,5019,7108,4294967202,4294966531,97,11198,7001,10796,186,229,1,13899,4294963586,8917,396,4294967245,167,4294966716,4294966716,4294966716
421194839,6466986,6475789,13755,5015,7089,4294967184,4294966490,120,11166,7013,10712,85,233,4294967290,13854,4294963591,8879,467,22,191,4294966724,4294966724,4294966724
421200851,6466942,6475636,13715,5060,7012,4294967177,4294966526,121,11161,6950,10731,6,235,4294967288,13894,4294963651,8916,547,122,193,4294966714,4294966714,4294966714
421206851,6466604,6475498,13762,5043,6949,4294967212,4294966577,113,11160,6928,10746,4294967224,236,4294967283,13873,4294963678,8846,562,195,193,4294966714,4294966714,4294966714
421212840,6466431,6475088,13726,5027,6936,4294967183,4294966644,94,11108,6948,10797,4294967165,235,4294967249,13794,4294963697,8909,554,289,177,4294966720,4294966720,4294966720
421218846,6466427,6474960,13736,5043,6935,4294967214,4294966754,72,11108,6925,10748,4294967205,268,4294967243,13784,4294963663,8885,569,307,192,4294966719,4294966719,4294966719
421224844,6466708,6475208,13720,5035,6893,4294967203,4294966826,48,11118,6909,10726,4294967202,286,4294967210,13778,4294963739,8882,555,324,184,4294966719,4294966719,4294966719
421230839,6466233,6474700,13704,4978,6816,4294967190,4294966904,31,11098,6876,10806,4294967251,327,4294967237,13741,4294963749,8832,508,342,217,4294966721,4294966721,4294966721
421236848,6465586,6473920,13703,4991,6896,4294967165,4294966972,4294967289,11046,6871,10767,43,323,4294967213,13685,4294963753,8851,495,296,197,4294966715,4294966715,4294966715
421242860,6465536,6473873,13690,4960,6822,4294967146,4294966983,4294967278,11074,6945,10689,145,371,4294967211,13712,4294963822,8887,493,270,198,4294966708,4294966708,4294966708
421248846,6465140,6473365,13709,4951,6892,4294967157,4294966994,4294967250,11019,6865,10706,210,389,4294967231,13655,4294963715,8890,536,188,203,4294966719,4294966719,4294966719
421254862,6464679,6472784,13713,4966,6901,4294967141,4294967002,4294967222,10998,6865,10703,287,406,4294967237,13668,4294963721,8915,558,151,200,4294966710,4294966710,4294966710
421260849,6464313,6472150,13695,5002,6881,4294967144,4294966999,4294967205,10952,6903,10730,318,367,4294967270,13669,4294963757,8883,577,112,217,4294966715,4294966715,4294966715
421266824,6464106,6472087,13662,5071,6897,4294967207,4294966933,4294967199,11022,6877,10695,332,335,4294967273,13645,4294963688,8966,567,63,199,4294966732,4294966732,4294966732
421272849,6464012,6471876,13665,5006,6923,4294967212,4294966926,4294967208,10979,6973,10680,290,310,4,13631,4294963685,9024,544,26,196,4294966713,4294966713,4294966713
421278831,6464159,6471953,13653,5061,6930,4294967225,4294966903,4294967206,11027,6971,10749,263,320,7,13636,4294963740,8918,510,4294967290,163,4294966729,4294966729,4294966729
421284847,6463830,6471735,13666,5032,6896,4294967254,4294966906,4294967220,11055,6883,10889,236,349,44,13733,4294963771,8726,482,7,159,4294966718,4294966718,4294966718
421290852,6463910,6471450,13663,5013,6924,4294967263,4294966888,4294967241,10991,6834,10902,305,402,65,13703,4294963775,8738,465,43,168,4294966713,4294966713,4294966713
421296858,6463913,6471477,13627,5068,6836,4294967271,4294966857,9,11003,6882,11011,431,365,60,13749,4294963783,8979,429,39,193,4294966712,4294966712,4294966712
421302840,6463776,6471144,13690,5091,6877,19,4294966811,62,10933,6945,10938,445,359,81,13701,4294963726,9107,436,4294967295,193,4294966723,4294966723,4294966723
421308835,6463973,6471641,13750,5055,6804,35,4294966762,104,11012,6966,10918,390,344,48,13666,4294963693,9050,526,4294967235,158,4294966725,4294966725,4294966725
421314844,6464011,6471613,13708,4998,6821,52,4294966766,118,11012,6974,10871,309,321,46,13711,4294963766,8931,617,4294967234,163,4294966721,4294966721,4294966721
421320844,6464197,6471884,13672,4979,6789,71,4294966813,133,10993,6953,10766,203,301,13,13750,4294963758,8804,672,4294967255,157,4294966720,4294966720,4294966720
421326836,6464082,6471936,13681,4960,6825,73,4294966834,119,10974,6979,10840,143,270,12,13782,4294963871,8787,663,4294967287,157,4294966723,4294966723,4294966723
421332839,6464084,6471855,13613,4959,6870,56,4294966858,100,10988,6957,10831,127,239,4294967278,13803,4294963872,8606,542,61,195,4294966723,4294966723,4294966723
421338850,6464284,6471958,13689,4985,6876,22,4294966880,50,10946,6959,10796,140,205,4294967264,13753,4294963885,8710,419,130,222,4294966715,4294966715,4294966715
421344850,6464406,6472433,13611,4998,6917,4294967262,4294966874,47,11010,6908,10744,165,164,4294967248,13787,4294963861,8808,336,147,237,4294966714,4294966714,4294966714
421350838,6464204,6472239,13702,4976,6853,4294967211,4294966872,19,10983,6975,10808,168,163,4294967217,13811,4294963751,8852,283,134,262,4294966720,4294966720,4294966720
421356832,6463830,6471718,13719,4986,6740,4294967166,4294966863,5,10996,6890,10840,248,136,4294967225,13810,4294963770,8865,302,115,250,4294966726,4294966726,4294966726
421362850,6463641,6471550,13776,5031,6856,4294967151,4294966879,4294967266,10985,6958,10804,324,111,4294967229,13770,4294963786,8899,361,68,238,4294966717,4294966717,4294966717
421368837,6463583,6471460,13812,5012,6846,4294967154,4294966916,4294967279,11046,6923,10790,376,141,4294967211,13754,4294963788,8808,411,44,204,4294966723,4294966723,4294966723
421374850,6463893,6471712,13773,5058,6832,4294967167,4294966962,16,11043,6915,10736,435,191,4294967190,13791,4294963843,8790,424,1,188,4294966716,4294966716,4294966716
421380850,6464092,6472063,13822,5055,6754,4294967185,4294966909,50,11004,6929,10716,510,273,4294967198,13761,4294963752,8847,411,5,180,4294966719,4294966719,4294966719
421386858,6463838,6471913,13831,5098,6874,4294967208,4294966913,72,10996,6911,10851,534,332,4294967208,13824,4294963829,8776,429,17,176,4294966712,4294966712,4294966712
421392843,6463850,6471882,13796,5091,6822,4294967228,4294966891,85,11006,6955,10825,554,380,4294967220,13844,4294963882,8829,407,23,165,4294966718,4294966718,4294966718
421398853,6463981,6471822,13765,5090,6847,4294967242,4294966859,54,11026,6984,10878,573,400,4294967282,13807,4294963842,8845,376,29,171,4294966712,4294966712,4294966712
421404840,6464065,6472072,13783,5127,6902,4294967224,4294966834,60,11042,7027,10919,583,421,4294967284,13727,4294963858,8875,403,38,177,4294966724,4294966724,4294966724
421410863,6463767,6471787,13760,5094,6922,4294967234,4294966841,66,11003,7065,10955,557,457,3,13752,4294963827,8815,438,42,178,4294966708,4294966708,4294966708
421416844,6464005,6471661,13739,5148,6865,4294967224,4294966837,40,10979,7095,10865,559,475,18,13761,4294963774,8863,509,59,143,4294966716,4294966716,4294966716
421422846,6464178,6472012,13752,5091,6833,4294967221,4294966815,44,10964,7115,10818,526,480,58,13784,4294963785,8737,539,90,144,4294966721,4294966721,4294966721
421428843,6464162,6472120,13787,5090,6827,4294967205,4294966804,49,11006,7058,10803,508,505,45,13780,4294963797,8799,516,111,127,4294966721,4294966721,4294966721
421434855,6463632,6471532,13713,5067,6766,4294967216,4294966759,36,11011,7053,10762,494,492,30,13877,4294963831,8807,485,145,86,4294966716,4294966716,4294966716
421440851,6463835,6471504,13735,5084,6742,4294967231,4294966766,63,10954,7055,10760,480,457,28,13809,4294963842,8820,419,167,86,4294966714,4294966714,4294966714
421446844,6463785,6471555,13762,5057,6737,4294967241,4294966724,54,11037,7050,10696,441,450,11,13793,4294963863,8680,357,168,105,4294966722,4294966722,4294966722
421452832,6463833,6471801,13734,5053,6752,4294967239,4294966729,55,11035,7031,10794,387,419,4294967285,13756,4294963845,8730,304,144,140,4294966726,4294966726,4294966726
421458839,6463753,6471682,13710,5078,6814,4294967267,4294966754,96,11007,7128,10859,326,356,4294967294,13827,4294963878,8883,329,155,171,4294966719,4294966719,4294966719
421464841,6464219,6472434,13757,5070,6723,4294967257,4294966766,87,11009,7102,10853,312,319,4294967272,13801,4294963886,8656,258,180,158,4294966720,4294966720,4294966720
421470856,6464140,6472328,13723,5014,6820,4294967263,4294966791,76,10979,7084,10818,282,308,4294967289,13781,4294963891,8810,331,170,182,4294966711,4294966711,4294966711
421476837,6464142,6472296,13718,5009,6878,4294967250,4294966792,89,10970,7120,10839,248,274,4294967266,13841,4294963877,8742,321,149,151,4294966724,4294966724,4294966724
421482855,6464053,6471957,13733,5008,6800,4294967251,4294966805,54,10983,7105,10841,255,252,4294967275,13822,4294963949,8747,333,157,195,4294966713,4294966713,4294966713
421488849,6464129,6471966,13742,5003,6813,4294967253,4294966828,63,10956,7084,10823,249,224,4294967268,13838,4294963901,8749,359,129,214,4294966714,4294966714,4294966714
421494842,6464379,6472019,13805,4979,6790,4294967245,4294966830,70,10904,7041,10826,246,209,9,13793,4294963877,8701,393,135,220,4294966721,4294966721,4294966721
421500845,6464873,6472415,13774,5017,6702,4294967251,4294966849,57,10950,7039,10897,218,201,3,13832,4294963842,8754,417,132,232,4294966715,4294966715,4294966715
421506840,6464545,6472402,13751,5075,6802,4294967256,4294966846,32,10976,7003,10771,230,199,4294967293,13802,4294963848,8784,446,129,216,4294966723,4294966723,4294966723
421512850,6464734,6472308,13777,5013,6833,4294967267,4294966848,33,11000,7051,10800,231,243,1,13801,4294963856,8759,440,117,214,4294966716,4294966716,4294966716
421518849,6464841,6471935,13837,4980,6836,4294967279,4294966879,29,11007,7012,10713,234,277,15,13782,4294963835,8760,419,89,211,4294966716,4294966716,4294966716
421524847,6464087,6471608,13843,4998,6758,4294967265,4294966876,44,10951,7035,10787,231,294,19,13822,4294963786,8824,440,63,221,4294966715,4294966715,4294966715
421530847,6463605,6471091,13831,4965,6726,4294967246,4294966900,35,10975,7025,10713,238,306,43,13799,4294963825,8882,442,31,204,4294966715,4294966715,4294966715
421536844,6463844,6471133,13854,4941,6742,4294967257,4294966901,20,10971,7019,10801,279,326,10,13802,4294963817,8864,450,30,201,4294966721,4294966721,4294966721
421542842,6463926,6471358,13837,5028,6754,4294967247,4294966896,46,10981,7035,10762,300,333,14,13827,4294963828,8871,468,51,187,4294966721,4294966721,4294966721
421548839,6463776,6471262,13844,5019,6695,4294967226,4294966887,45,10982,7046,10761,328,328,19,13824,4294963866,8873,483,28,209,4294966723,4294966723,4294966723
421554848,6463649,6470955,13820,4999,6735,4294967226,4294966880,29,10958,7084,10843,352,298,4294967277,13792,4294963832,8807,502,48,212,4294966720,4294966720,4294966720
421560853,6463716,6471027,13777,5031,6831,4294967197,4294966898,28,11049,7097,10805,346,256,8,13808,4294963859,8821,485,61,225,4294966712,4294966712,4294966712
421566829,6463496,6471733,13771,5030,6690,4294967193,4294966853,33,11085,7046,10772,336,261,16,13823,4294963868,8760,474,67,233,4294966729,4294966729,4294966729
421572858,6463732,6472204,13752,5021,6694,4294967186,4294966833,38,11010,7059,10828,326,220,4294967281,13827,4294963845,8878,436,54,249,4294966711,4294966711,4294966711
421578840,6465304,6473285,13824,5043,6675,4294967186,4294966837,49,11036,7014,10830,304,184,4294967285,13800,4294963859,8816,422,53,244,4294966721,4294966721,4294966721
421584848,6467318,6474545,13840,5051,6632,4294967164,4294966817,75,11033,7053,10811,289,202,4294967275,13847,4294963876,8873,415,77,219,4294966720,4294966720,4294966720
421590837,6469918,6477209,13829,5068,6664,4294967201,4294966844,80,11039,7022,10862,272,182,4294967269,13832,4294963798,8958,382,80,224,4294966726,4294966726,4294966726
421596857,6470826,6478836,13809,4998,6681,4294967219,4294966851,91,11055,7018,10792,248,200,4294967266,13805,4294963889,8824,383,81,219,4294966711,4294966711,4294966711
421602846,6468020,6476466,13805,5040,6699,4294967238,4294966892,112,10970,7052,10841,237,215,4294967263,13809,4294963793,8815,371,75,188,4294966718,4294966718,4294966718
421608836,6463525,6470063,13728,5009,6715,4294967248,4294966908,128,10989,7043,10877,247,215,4294967257,13799,4294963850,8845,392,70,156,4294966726,4294966726,4294966726
421614842,6460302,6466988,13767,4967,6676,4294967275,4294966904,131,10939,7043,10922,233,202,4294967280,13835,4294963846,8792,426,37,177,4294966718,4294966718,4294966718
421620847,6459995,6469077,13798,4995,6638,4294967275,4294966912,120,10978,7014,10914,228,184,4294967253,13853,4294963871,8778,425,33,165,4294966721,4294966721,4294966721
421626841,6460901,6469540,13866,5000,6644,4294967279,4294966884,147,10981,6992,10893,262,194,4294967239,13800,4294963893,8705,414,43,161,4294966724,4294966724,4294966724
421632847,6461943,6469898,13837,4945,6740,4294967278,4294966821,157,10984,7096,10695,277,198,4294967234,13807,4294963967,8783,395,54,199,4294966720,4294966720,4294966720
421638845,6463139,6471013,13821,4953,6643,4294967257,4294966801,145,10934,7043,10752,209,132,4294967224,13825,4294963911,8707,401,36,182,4294966717,4294966717,4294966717
421644855,6463722,6471548,13894,4973,6568,4294967230,4294966786,132,10988,7041,10839,221,152,4294967242,13875,4294963849,8554,417,39,197,4294966711,4294966711,4294966711
421650851,6463643,6471277,13899,4935,6645,4294967225,4294966767,150,10913,6960,10739,299,156,4294967230,13894,4294963917,8604,412,42,222,4294966718,4294966718,4294966718
421656860,6464149,6471603,13841,4972,6695,4294967230,4294966748,106,10987,7022,10503,371,207,4294967220,13801,4294963901,8695,356,53,208,4294966707,4294966707,4294966707
421662853,6464076,6471486,13827,4939,6801,4294967237,4294966757,89,11039,7011,10555,374,225,4294967266,13852,4294963860,8671,335,38,240,4294966713,4294966713,4294966713
421668860,6464190,6471530,13772,4899,6804,4294967181,4294966826,33,11037,6981,10663,369,232,4294967228,13897,4294963784,8747,288,29,223,4294966705,4294966705,4294966705
421674834,6464458,6471753,13739,4870,6767,4294967126,4294966857,9,11032,7031,10719,338,194,4294967251,13890,4294963822,8611,311,31,201,4294966728,4294966728,4294966728
421680849,6464858,6472174,13764,4923,6838,4294967115,4294966893,4294967276,11105,7057,10896,348,222,4294967264,13866,4294963800,8563,383,77,188,4294966713,4294966713,4294966713
421686852,6464837,6472241,13809,5042,6822,4294967122,4294966828,13,11041,6935,11122,482,186,4294967283,13853,4294963834,8725,593,46,209,4294966716,4294966716,4294966716
421692849,6464779,6472321,13912,4991,6691,4294967181,4294966736,54,11005,6943,10976,595,125,4294967254,13795,4294963830,8871,697,53,194,4294966717,4294966717,4294966717
421698844,6464997,6472398,13972,4950,6611,4294967215,4294966659,81,11032,7044,10900,481,97,4294967252,13752,4294963865,8912,787,57,172,4294966722,4294966722,4294966722
421704843,6464981,6472426,13992,4913,6413,4294967261,4294966644,48,11050,7103,10631,321,53,4294967274,13728,4294963877,8897,793,10,165,4294966720,4294966720,4294966720
421710870,6464764,6472216,14063,4889,6415,4294967264,4294966717,50,11149,7063,10534,160,48,4294967254,13674,4294963892,8695,742,4294967287,181,4294966703,4294966703,4294966703
421716861,6464580,6472264,14030,4827,6441,4294967224,4294966872,1,11086,7006,10424,98,46,4294967214,13733,4294963961,8747,632,15,174,4294966704,4294966704,4294966704
421722848,6464888,6472566,13959,4847,6516,4294967191,4294967005,4294967259,10989,7038,10537,66,29,4294967185,13728,4294963963,8743,456,55,174,4294966714,4294966714,4294966714
