t_us,ads_ch1,ads_ch2,ax0,ay0,az0,gx0,gy0,gz0,ax1,ay1,az1,gx1,gy1,gz1,ax2,ay2,az2,gx2,gy2,gz2,dt0_us,dt1_us,dt2_us
268646842,6467486,6470714,13650,4981,7107,4294967261,4294967220,4294967243,10966,6669,10716,120,583,4294967083,14204,4294964395,8258,470,382,260,4294966719,4294966719,4294966719
268652845,6466810,6469806,13650,5016,7110,4294967267,4294967264,4294967205,10932,6744,10792,170,671,4294967048,14130,4294964375,8211,510,362,226,4294966719,4294966719,4294966719
268658854,6466982,6470098,13620,4974,7067,4294967288,4294967277,4294967221,10982,6749,10822,155,688,4294967042,14218,4294964386,8271,494,319,203,4294966715,4294966715,4294966715
268664863,6466903,6470101,13585,4920,7038,12,61,4294967202,10953,6745,10929,186,647,4294967041,14209,4294964359,8174,452,297,137,4294966706,4294966706,4294966706
268670860,6466589,6469787,13571,4963,6945,18,128,4294967197,11002,6824,10871,267,570,4294967096,14248,4294964393,8281,406,320,134,4294966711,4294966711,4294966711
268676841,6466445,6469521,13452,4915,7037,4294967294,176,4294967183,10993,6804,10857,318,439,4294967139,14286,4294964420,8130,313,353,121,4294966721,4294966721,4294966721
268682846,6466559,6469690,13438,4887,7136,33,202,4294967149,11137,6915,10915,374,349,4294967194,14275,4294964423,8045,202,347,116,4294966722,4294966722,4294966722
268688854,6466217,6469926,13427,4836,7114,11,234,4294967156,11115,6977,10868,435,260,4294967283,14292,4294964439,8218,144,326,118,4294966714,4294966714,4294966714
268694843,6466609,6469748,13438,4867,7082,4294967268,213,4294967131,11131,6970,10855,457,171,45,14272,4294964447,8260,117,304,146,4294966723,4294966723,4294966723
268700852,6466933,6469705,13442,4910,7157,4294967245,164,4294967138,11164,6906,10954,400,72,76,14317,4294964381,8325,155,302,156,4294966712,4294966712,4294966712
268706845,6466725,6469555,13477,4918,7206,4294967245,84,4294967161,11182,6860,10871,347,40,93,14370,4294964356,8328,231,273,165,4294966716,4294966716,4294966716
268712854,6466181,6469501,13588,4959,7138,4294967232,4294967277,4294967167,11157,6798,11055,280,48,76,14421,4294964328,8340,282,229,179,4294966713,4294966713,4294966713
268718858,6466833,6469816,13646,5013,7163,4294967228,4294967190,4294967180,11212,6757,11022,244,19,65,14412,4294964245,8381,353,176,200,4294966709,4294966709,4294966709
268724846,6466633,6469645,13688,5032,7188,4294967226,4294967142,4294967183,11209,6629,11003,242,15,68,14309,4294964245,8352,423,168,225,4294966718,4294966718,4294966718
268730845,6466801,6470176,13799,5009,7122,4294967210,4294967118,4294967213,11111,6701,10979,288,79,39,14283,4294964248,8421,452,187,230,4294966723,4294966723,4294966723
268736860,6467172,6471174,13768,4997,7097,4294967201,4294967131,4294967193,11123,6702,10902,353,169,23,14260,4294964219,8336,452,257,269,4294966711,4294966711,4294966711
268742843,6466795,6470664,13827,5004,7042,4294967199,4294967152,4294967189,11087,6717,10863,385,283,22,14277,4294964300,8362,477,277,307,4294966718,4294966718,4294966718
268748838,6467965,6471258,13791,5022,7121,4294967205,4294967213,4294967160,10992,6701,10940,416,422,3,14294,4294964286,8325,559,325,331,4294966725,4294966725,4294966725
268754858,6469796,6472249,13800,4944,7139,4294967179,23,4294967111,11036,6835,10874,469,508,4,14281,4294964323,8271,561,348,327,4294966710,4294966710,4294966710
268760878,6473207,6476147,13755,4974,7047,4294967168,91,4294967066,10980,6811,10904,522,599,4294967287,14275,4294964353,8269,575,369,356,4294966696,4294966696,4294966696
268766845,6471557,6475767,13684,4985,7156,4294967218,176,4294967067,10921,6833,10854,491,642,13,14244,4294964418,8273,555,387,368,4294966716,4294966716,4294966716
268772838,6466957,6469645,13528,4924,7265,4294967230,207,4294967054,10947,6871,10811,476,696,24,14255,4294964363,8331,579,358,365,4294966722,4294966722,4294966722
268778839,6462845,6464834,13452,4947,7216,4294967264,193,4294967034,10945,6844,10846,480,705,44,14247,4294964269,8402,645,302,335,4294966721,4294966721,4294966721
268784845,6462409,6465895,13431,4966,7170,4294967270,133,4294967050,10921,6851,10877,476,706,84,14260,4294964302,8427,715,195,276,4294966721,4294966721,4294966721
268790831,6463324,6466953,13441,4964,7175,4294967282,38,4294967087,10965,6720,10888,521,687,67,14241,4294964405,8302,719,165,281,4294966729,4294966729,4294966729
268796849,6464643,6468154,13367,4957,7292,4294967268,4294967173,4294967100,10976,6761,10814,577,650,38,14193,4294964467,8372,630,151,275,4294966716,4294966716,4294966716
268802851,6465457,6469161,13409,4949,7201,4294967273,4294967081,4294967128,10982,6755,10822,555,566,40,14157,4294964411,8308,523,101,274,4294966718,4294966718,4294966718
268808864,6466725,6470060,13569,4928,7114,4294967228,4294966967,4294967148,10987,6726,11027,529,442,13,14079,4294964347,8293,498,71,251,4294966706,4294966706,4294966706
268814848,6466804,6470229,13537,4950,7026,4294967208,4294966876,4294967157,10953,6709,11025,548,409,25,14075,4294964297,8265,496,24,217,4294966718,4294966718,4294966718
268820845,6465744,6469736,13446,4925,7155,4294967204,4294966899,4294967153,10987,6727,10803,602,443,52,14007,4294964405,8487,548,4294967230,219,4294966719,4294966719,4294966719
268826852,6465928,6469518,13414,5012,7197,4294967198,4294966985,4294967170,10967,6732,10818,568,426,60,14040,4294964376,8557,537,4294967162,190,4294966717,4294966717,4294966717
268832854,6466708,6469931,13425,5020,7241,4294967201,4294967076,4294967113,10941,6698,10913,562,357,73,13984,4294964360,8409,524,4294967108,179,4294966712,4294966712,4294966712
268838851,6467057,6469862,13346,5035,7333,4294967135,4294967185,4294967119,10959,6679,11047,611,356,106,14052,4294964414,8152,608,4294967117,173,4294966716,4294966716,4294966716
268844854,6466884,6469663,13348,5063,7347,4294967065,4294967295,4294967097,11036,6753,11109,755,356,134,14108,4294964411,8091,623,4294967165,191,4294966714,4294966714,4294966714
268850840,6466854,6470034,13410,5052,7396,4294967028,32,4294967097,10992,6797,11204,834,318,183,14194,4294964394,8033,663,4294967172,224,4294966719,4294966719,4294966719
268856844,6467321,6470739,13515,5055,7317,4294967061,4294967241,4294967109,11013,6752,11189,909,316,245,14226,4294964420,8167,692,4294967190,250,4294966720,4294966720,4294966720
268862831,6466847,6470327,13631,5082,7213,4294967063,4294967125,4294967150,11026,6802,11154,889,334,257,14292,4294964444,8359,740,4294967162,283,4294966729,4294966729,4294966729
268868858,6467042,6470370,13706,5035,7137,4294967109,4294967077,4294967160,11025,6812,11027,890,338,260,14304,4294964490,8362,750,4294967174,294,4294966711,4294966711,4294966711
268874841,6466994,6470216,13757,4992,7036,4294967157,4294967019,4294967179,11000,6910,11025,868,331,244,14272,4294964499,8386,718,4294967136,300,4294966720,4294966720,4294966720
268880855,6467098,6470623,13823,4968,7071,4294967189,4294967000,4294967161,10963,6780,10991,833,368,218,14268,4294964500,8452,666,4294967131,341,4294966714,4294966714,4294966714
268886841,6467609,6471028,13703,4992,7119,4294967163,4294967030,4294967130,10954,6741,11076,812,358,136,14243,4294964423,8531,651,4294967146,356,4294966723,4294966723,4294966723
268892841,6467162,6470463,13634,4923,7108,4294967102,4294967112,4294967072,10949,6783,11102,769,332,106,14196,4294964479,8502,591,4294967191,400,4294966723,4294966723,4294966723
268898839,6467152,6470512,13616,4892,7153,4294967067,4294967164,4294967006,10945,6707,10987,745,379,49,14131,4294964443,8518,530,4294967175,359,4294966722,4294966722,4294966722
268904841,6467214,6470525,13565,4891,7076,4294967002,4294967192,4294966973,10831,6688,10741,854,455,40,14016,4294964464,8499,552,4294967140,349,4294966721,4294966721,4294966721
268910859,6467730,6471183,13525,4951,7048,4294966963,4294967261,4294966983,10791,6777,10605,932,614,20,13930,4294964452,8409,606,4294967106,359,4294966709,4294966709,4294966709
268916849,6468034,6471612,13522,4974,7138,4294966965,15,4294966989,10640,6835,10628,1092,727,18,13942,4294964477,8342,609,4294967168,358,4294966717,4294966717,4294966717
268922849,6467702,6471553,13520,5008,7120,4294966996,4294967290,4294967035,10650,6859,10787,1200,773,9,13971,4294964524,8266,564,4294967216,340,4294966716,4294966716,4294966716
268928838,6467586,6471472,13481,5071,7097,4294967043,4294967228,4294967131,10665,6940,10924,1245,781,4294967289,14011,4294964569,8299,440,4294967276,303,4294966720,4294966720,4294966720
268934863,6468222,6471873,13561,5101,7114,4294967107,4294967150,4294967195,10727,6959,10858,1189,818,4294967251,14050,4294964553,8311,343,4294967283,259,4294966708,4294966708,4294966708
268940834,6468537,6472200,13566,5141,7127,4294967150,4294967053,4294967277,10738,6890,10838,1155,888,4294967247,14074,4294964432,8289,252,4294967269,238,4294966725,4294966725,4294966725
268946850,6469163,6472792,13521,5141,7155,4294967185,4294966974,57,10844,6928,10797,1198,939,4294967243,14055,4294964378,8306,189,4294967280,176,4294966716,4294966716,4294966716
268952845,6468623,6472243,13523,5121,7228,4294967191,4294966947,112,10877,6865,10809,1189,1035,4294967216,14087,4294964268,8345,143,4294967283,107,4294966717,4294966717,4294966717
268958856,6468397,6472614,13595,5042,7229,4294967204,4294966941,124,10923,6913,10743,1126,1043,4294967221,14118,4294964183,8441,175,4294967242,50,4294966716,4294966716,4294966716
268964848,6467945,6472506,13553,5065,7163,4294967202,4294967009,100,10980,6987,10778,997,1051,4294967207,14013,4294964213,8394,248,4294967228,37,4294966718,4294966718,4294966718
268970847,6468721,6472800,13529,5010,7135,4294967172,4294967113,91,11041,7008,10795,935,955,4294967181,14048,4294964265,8360,265,4294967200,4294967288,4294966716,4294966716,4294966716
268976850,6468707,6472489,13565,5019,7204,4294967200,4294967202,41,11136,6970,10664,893,894,4294967230,14078,4294964250,8204,225,4294967275,40,4294966718,4294966718,4294966718
268982848,6468299,6472273,13556,4948,7198,4294967167,39,4,11116,7037,10662,987,812,4294967275,14107,4294964317,8250,230,91,54,4294966717,4294966717,4294966717
268988862,6468600,6472436,13507,4950,7114,4294967145,146,4294967249,11096,7145,10863,1013,729,55,14113,4294964285,8229,201,132,135,4294966710,4294966710,4294966710
268994851,6468393,6472124,13517,4917,7087,4294967137,200,4294967198,11143,7111,10982,965,573,93,14109,4294964243,8115,198,139,191,4294966717,4294966717,4294966717
269000841,6468498,6472412,13488,4922,7136,4294967119,235,4294967161,11203,7027,10995,849,388,139,14148,4294964144,8347,280,159,248,4294966723,4294966723,4294966723
269006865,6468482,6472437,13478,4948,7160,4294967077,237,4294967121,11171,7038,10914,846,243,214,14157,4294964063,8456,448,134,334,4294966705,4294966705,4294966705
269012835,6468170,6472119,13489,4874,7137,4294967017,209,4294967067,11204,6956,10840,804,132,306,14212,4294964183,8290,556,105,408,4294966725,4294966725,4294966725
269018828,6468076,6471848,13498,4812,7153,4294966956,139,4294966998,11192,6943,10943,798,109,350,14198,4294964372,8139,551,133,500,4294966730,4294966730,4294966730
269024845,6468235,6471939,13527,4771,7162,4294966892,64,4294966944,11171,6933,10952,823,21,410,14248,4294964429,8029,546,238,650,4294966718,4294966718,4294966718
269030863,6467250,6470782,13585,4799,7259,4294966840,4294967280,4294966903,11135,6890,10906,937,25,485,14349,4294964588,7998,453,389,794,4294966704,4294966704,4294966704
269036853,6466183,6469826,13641,4811,7237,4294966843,4294967151,4294966843,11112,7021,10962,954,73,533,14323,4294964726,7788,304,489,937,4294966712,4294966712,4294966712
269042843,6466225,6469510,13721,4804,7235,4294966882,4294967044,4294966811,11133,7042,11012,962,107,580,14301,4294964750,7683,153,618,1098,4294966720,4294966720,4294966720
269048853,6466004,6469088,13659,4881,7277,4294966911,4294966932,4294966800,11030,7234,10978,959,170,657,14425,4294964635,7701,179,730,1261,4294966714,4294966714,4294966714
269054837,6465894,6469137,13750,4907,7283,4294966998,4294966889,4294966818,11009,7354,10908,944,274,695,14525,4294964772,7803,180,770,1375,4294966725,4294966725,4294966725
269060849,6466348,6469599,13741,4984,7254,4294967042,4294966870,4294966810,11007,7419,10863,862,365,736,14542,4294964755,7703,4294967176,710,1454,4294966715,4294966715,4294966715
269066858,6466498,6469604,13765,5064,7186,4294967097,4294966881,4294966869,11052,7298,10841,919,414,789,14641,4294964644,7665,4294967086,680,1519,4294966708,4294966708,4294966708
269072836,6466703,6469818,13725,5042,7172,4294967107,4294966901,4294966913,10976,7297,11039,1022,477,793,14552,4294964671,7922,4294967163,634,1514,4294966724,4294966724,4294966724
269078848,6466573,6469838,13772,5086,7147,4294967124,4294966920,4294966971,10851,7230,11147,1050,523,773,14589,4294964675,8098,4294967142,545,1489,4294966717,4294966717,4294966717
269084857,6467019,6470276,13774,5212,7173,4294967118,4294966875,4294967053,10769,7295,11168,1077,542,739,14527,4294964559,8256,4294967183,495,1467,4294966711,4294966711,4294966711
269090847,6467025,6470474,13766,5163,7208,4294967132,4294966886,4294967140,10688,7257,11028,991,549,711,14478,4294964594,8219,4294967160,482,1420,4294966718,4294966718,4294966718
269096837,6467012,6470522,13681,5184,7107,4294967139,4294966875,4294967211,10619,7219,10862,787,600,576,14427,4294964561,7998,4294967221,653,1373,4294966723,4294966723,4294966723
269102831,6466849,6470204,13646,5158,7100,4294967142,4294966903,4294967221,10571,7168,10784,514,618,450,14418,4294964599,8013,55,880,1308,4294966728,4294966728,4294966728
269108856,6467162,6470493,13595,5127,7031,4294967148,4294966948,4294967259,10554,7160,10806,336,690,340,14310,4294964672,8041,68,1049,1251,4294966712,4294966712,4294966712
269114848,6466061,6469880,13542,5020,7023,4294967169,4294967032,4294967275,10592,7199,10773,299,671,227,14364,4294964680,8050,4294967202,1117,1149,4294966718,4294966718,4294966718
269120852,6466111,6469830,13481,4993,7089,4294967147,4294967061,4294967254,10576,7262,10797,293,644,166,14376,4294964630,7989,4294967028,1272,1037,4294966715,4294966715,4294966715
269126838,6466368,6469460,13512,5031,7023,4294967127,4294967096,4294967225,10573,7202,10866,249,525,96,14392,4294964525,7893,4294966725,1346,926,4294966722,4294966722,4294966722
269132851,6466604,6469675,13496,4991,7066,4294967095,4294967109,4294967197,10624,7189,10844,300,390,13,14349,4294964518,7785,4294966566,1402,761,4294966717,4294966717,4294966717
269138850,6466537,6469930,13501,4962,7125,4294967051,4294967121,4294967189,10686,7196,10767,354,444,17,14240,4294964494,7806,4294966434,1354,660,4294966715,4294966715,4294966715
269144854,6466455,6470103,13484,4959,7108,4294967051,4294967133,4294967195,10654,7268,10771,524,420,40,14187,4294964458,7798,4294966232,1197,374,4294966713,4294966713,4294966713
269150848,6466475,6469749,13515,4938,7127,4294967044,4294967113,4294967185,10590,7170,10852,637,376,54,14271,4294964423,7826,4294966052,1145,265,4294966717,4294966717,4294966717
269156857,6466611,6470044,13569,4961,7094,4294967039,4294967063,4294967227,10677,7137,11029,515,172,24,14135,4294964438,7876,4294966002,1115,126,4294966714,4294966714,4294966714
269162835,6466681,6470293,13557,5027,7039,4294967069,4294967031,4294967295,10735,6987,10987,458,6,4294967267,14159,4294964349,7876,4294966025,1047,109,4294966728,4294966728,4294966728
269168841,6466237,6469622,13604,5004,7063,4294967099,4294967015,20,10672,6932,10946,344,4294967264,4294967190,14115,4294964338,7844,4294966006,1001,88,4294966720,4294966720,4294966720
269174856,6465900,6469324,13645,5054,6974,4294967134,4294967014,87,10686,6917,10907,357,4294967259,4294967146,14309,4294964281,7882,4294965993,904,25,4294966714,4294966714,4294966714
269180844,6465756,6469283,13676,5105,7041,4294967125,4294967074,138,10661,6901,10846,425,48,4294967133,14287,4294964257,8105,4294965869,785,4294967289,4294966720,4294966720,4294966720
269186832,6465885,6469379,13712,5083,6909,4294967108,4294967144,172,10761,7008,10628,475,190,4294967073,14271,4294964144,8499,4294966168,643,4294967280,4294966728,4294966728,4294966728
269192848,6465379,6468856,13707,5032,7013,4294967082,4294967221,210,10761,6985,10641,477,360,4294967019,14338,4294963945,8753,4294966429,333,21,4294966715,4294966715,4294966715
269198850,6465374,6468695,13724,5059,7116,4294967037,4294967278,248,10843,7023,10579,405,511,4294966987,14498,4294963865,8871,4294967016,187,79,4294966719,4294966719,4294966719
269204845,6465426,6468655,13762,5039,7045,4294967031,24,280,10879,6987,10562,341,638,4294966935,14450,4294964025,8647,4294967294,70,4294967291,4294966717,4294966717,4294966717
269210850,6465375,6468512,13739,5035,7094,4294967038,82,274,10946,6968,10662,371,664,4294966900,14353,4294964105,8430,4294967126,22,4294967190,4294966716,4294966716,4294966716
269216846,6465497,6468724,13705,5022,7098,4294966994,149,288,10975,6975,10673,419,573,4294966874,14370,4294964077,8297,4294966909,126,4294967239,4294966719,4294966719,4294966719
269222858,6465848,6469094,13662,5006,7152,4294966997,194,248,10960,6966,10704,409,578,4294966855,14369,4294964025,8264,4294966841,278,4294967233,4294966715,4294966715,4294966715
269228859,6466044,6469494,13633,4958,7151,4294967009,247,222,11054,7004,10684,372,520,4294966834,14347,4294964050,8241,4294966705,531,4294967244,4294966710,4294966710,4294966710
269234856,6465609,6469413,13601,4921,7266,4294967004,274,183,11090,7037,10641,354,435,4294966816,14322,4294963853,8231,4294966833,822,4294967294,4294966709,4294966709,4294966709
269240851,6465327,6469290,13643,4918,7205,4294967013,300,125,11134,7046,10722,402,386,4294966829,14263,4294963806,8199,4294966928,1050,68,4294966715,4294966715,4294966715
269246842,6465294,6469264,13526,4908,7286,4294966992,336,54,11195,7119,10718,320,333,4294966845,14288,4294963875,8196,4294966885,1139,48,4294966718,4294966718,4294966718
269252842,6465596,6469401,13531,4817,7274,4294967013,291,17,11233,7197,10822,320,239,4294966906,14163,4294963910,8322,4294966664,1193,43,4294966720,4294966720,4294966720
269258860,6465552,6469506,13490,4838,7285,4294967040,260,4294967246,11236,7151,10824,274,184,4294966942,14181,4294963937,8427,4294966622,1178,81,4294966711,4294966711,4294966711
269264854,6465403,6469267,13521,4837,7325,4294967041,198,4294967253,11276,7110,10933,289,117,4294967038,14224,4294963796,8521,4294966667,1179,118,4294966717,4294966717,4294966717
269270850,6465159,6468940,13511,4877,7319,4294967079,123,4294967206,11260,7067,10961,182,133,4294967086,14286,4294963806,8511,4294966896,1127,232,4294966713,4294966713,4294966713
269276863,6465399,6469172,13478,4904,7166,4294967129,56,4294967201,11167,7103,10915,109,130,4294967128,14212,4294963779,8618,4294967011,1060,340,4294966706,4294966706,4294966706
269282838,6465319,6468966,13572,4915,7183,4294967192,19,4294967201,11141,7050,11023,44,128,4294967154,14165,4294963757,8559,4294967166,1014,403,4294966722,4294966722,4294966722
269288842,6465814,6469164,13539,4893,7146,4294967201,4294967279,4294967176,11076,7026,10940,4294967279,203,4294967203,14027,4294963883,8417,4294967089,964,411,4294966720,4294966720,4294966720
269294837,6465405,6468909,13513,4931,7208,4294967212,4294967275,4294967138,10965,7011,10875,79,267,4294967208,14165,4294963872,8199,4294967210,1079,456,4294966723,4294966723,4294966723
269300850,6465433,6469104,13537,4992,7119,4294967200,4294967272,4294967099,10923,7143,10880,142,350,4294967248,14340,4294963818,7957,4294967160,1323,564,4294966715,4294966715,4294966715
269306889,6464996,6468981,13533,5009,7183,4294967134,4294967274,4294967034,10890,7054,10830,115,423,4294967257,14080,4294963986,8169,4294967115,1478,691,4294966698,4294966698,4294966698
269312837,6465450,6469463,13447,5034,7276,4294967068,4294967255,4294966971,10870,7047,10884,239,407,4294967284,13939,4294964034,8309,4294967172,1515,739,4294966723,4294966723,4294966723
269318852,6466090,6469797,13481,5077,7183,4294966995,4294967252,4294966892,10906,7077,10875,281,460,4294967295,13958,4294963991,8258,4294967128,1422,697,4294966713,4294966713,4294966713
269324847,6466055,6469496,13470,5110,7230,4294966962,4294967240,4294966879,10830,7019,10793,347,498,11,14097,4294963837,8412,4294967018,1379,668,4294966714,4294966714,4294966714
269330834,6466105,6469349,13483,5190,7202,4294966948,4294967220,4294966855,10785,7201,10742,363,551,46,14109,4294963837,8429,4294967028,1338,665,4294966727,4294966727,4294966727
269336844,6466035,6469360,13415,5166,7220,4294966957,4294967249,4294966845,10767,7212,10775,409,565,52,14101,4294963881,8486,4294967015,1191,573,4294966717,4294966717,4294966717
269342845,6465610,6468841,13417,5265,7343,4294966943,4294967268,4294966853,10840,7161,10883,430,530,27,14112,4294963895,8537,4294967093,1129,542,4294966721,4294966721,4294966721
269348836,6465416,6468681,13365,5221,7307,4294966966,4294967262,4294966846,10833,7220,11016,434,428,42,14127,4294963962,8572,4294967195,1070,489,4294966724,4294966724,4294966724
269354845,6465576,6468796,13394,5252,7301,4294966976,4294967271,4294966863,10829,7228,10979,428,291,31,14267,4294963922,8627,4294967233,1008,489,4294966719,4294966719,4294966719
269360839,6465630,6468967,13377,5236,7304,4294966980,4294967244,4294966869,10801,7217,11000,349,205,5,14237,4294963943,8666,84,950,454,4294966725,4294966725,4294966725
269366832,6465641,6469140,13416,5224,7369,4294966972,4294967199,4294966881,10746,7209,11072,345,127,4294967281,14242,4294963938,8761,153,883,433,4294966725,4294966725,4294966725
269372861,6465303,6469795,13411,5191,7322,4294966983,4294967127,4294966936,10766,7245,11015,234,103,4294967223,14291,4294963935,8834,90,840,426,4294966710,4294966710,4294966710
269378852,6465705,6469916,13439,5172,7345,4294966991,4294967066,4294966957,10768,7292,11059,31,105,4294967178,14270,4294963974,8739,208,862,394,4294966718,4294966718,4294966718
269384836,6467503,6471186,13449,5145,7300,4294966967,4294966984,4294966997,10721,7156,10919,4294967198,139,4294967132,14260,4294963973,8749,229,884,409,4294966726,4294966726,4294966726
269390859,6470640,6472907,13496,5163,7411,4294966981,4294966892,4294967045,10756,7129,10898,4294967124,193,4294967084,14247,4294963940,8741,322,928,438,4294966709,4294966709,4294966709
269396858,6473206,6476406,13541,5182,7360,4294966982,4294966836,4294967110,10767,7101,10918,4294967062,265,4294967047,14113,4294963926,8794,479,988,491,4294966712,4294966712,4294966712
269402863,6469479,6473692,13485,5128,7380,4294967009,4294966803,4294967168,10808,7138,10849,4294967051,314,4294967001,14138,4294963968,8749,601,1028,504,4294966707,4294966707,4294966707
269408848,6464849,6467427,13508,5072,7395,4294967038,4294966800,4294967219,10724,7087,10923,4294966952,414,4294966945,14152,4294963944,8675,715,1189,546,4294966717,4294966717,4294966717
269414838,6461518,6464333,13417,5079,7458,4294967042,4294966830,4294967238,10836,7032,10951,4294967002,380,4294966899,14084,4294963809,8732,816,1343,579,4294966720,4294966720,4294966720
269420838,6460913,6465497,13458,5083,7293,4294967048,4294966855,4294967239,10892,7050,11018,4294967076,396,4294966891,14008,4294963831,8689,963,1481,594,4294966726,4294966726,4294966726
269426840,6462410,6466411,13513,5158,7381,4294967046,4294966845,4294967284,10905,7048,11081,4294967140,434,4294966871,13969,4294963915,8686,1069,1586,658,4294966721,4294966721,4294966721
269432836,6463256,6466969,13457,5112,7339,4294967062,4294966797,4294967290,10926,7163,10951,4294967161,426,4294966868,13904,4294963922,8842,1044,1653,689,4294966722,4294966722,4294966722
269438843,6464435,6468331,13496,5067,7244,4294967079,4294966788,3,11009,7106,11005,4294967092,339,4294966852,13793,4294963868,8763,907,1699,628,4294966722,4294966722,4294966722
269444839,6465249,6469004,13637,5047,7127,4294967115,4294966753,9,10929,7084,11173,4294967044,222,4294966858,13730,4294963802,8668,692,1649,536,4294966719,4294966719,4294966719
269450847,6465638,6469118,13654,5037,7140,4294967158,4294966789,38,10837,7016,11218,4294967028,280,4294966917,13635,4294963893,8708,613,1632,491,4294966720,4294966720,4294966720
269456846,6466021,6469588,13596,4980,7143,4294967189,4294966881,19,10760,7099,11064,4294967126,255,4294966865,13713,4294963967,8744,382,1602,433,4294966720,4294966720,4294966720
269462840,6465942,6469675,13547,4946,7254,4294967203,4294966994,4294967280,10764,7062,10963,4294967047,289,4294966881,13621,4294963829,8905,212,1490,406,4294966721,4294966721,4294966721
269468858,6466343,6469622,13461,4880,7284,4294967251,4294967178,4294967240,10632,6991,11064,4294966960,236,4294966852,13624,4294963646,8895,193,1362,367,4294966712,4294966712,4294966712
269474853,6466217,6469551,13378,4853,7362,4294967248,31,4294967212,10661,6930,11115,4294966859,306,4294966875,13591,4294963745,8733,175,1240,295,4294966715,4294966715,4294966715
269480852,6466207,6469470,13362,4872,7363,4294967207,184,4294967191,10560,6835,11204,4294966806,337,4294966853,13587,4294963711,8727,164,1057,253,4294966713,4294966713,4294966713
269486844,6466232,6469517,13428,4900,7336,4294967236,219,4294967204,10499,6888,11217,4294966965,264,4294966817,13544,4294963644,8967,237,923,171,4294966717,4294966717,4294966717
269492841,6466596,6469796,13476,4955,7295,4294967264,165,4294967263,10516,6863,11117,4294967096,341,4294966814,13572,4294963647,8923,381,757,146,4294966722,4294966722,4294966722
269498860,6466783,6470028,13556,4959,7318,4294967266,73,25,10582,6902,11016,4294967178,378,4294966816,13594,4294963632,8945,450,645,93,4294966709,4294966709,4294966709
269504849,6466610,6469807,13581,4890,7266,4294967288,8,60,10666,6995,10797,4294967108,282,4294966798,13624,4294963645,8872,450,520,53,4294966716,4294966716,4294966716
269510834,6466841,6470190,13641,4866,7226,4294967267,4294967245,70,10826,7065,10662,4294967091,198,4294966804,13679,4294963654,8778,437,531,55,4294966727,4294966727,4294966727
269516835,6466804,6470486,13611,4837,7163,4294967247,4294967250,58,10991,7088,10681,4294967108,155,4294966837,13719,4294963649,8678,306,597,67,4294966727,4294966727,4294966727
269522844,6466670,6470327,13611,4778,7242,4294967231,3,41,11041,7147,10793,4294967096,36,4294966841,13761,4294963694,8719,129,604,147,4294966719,4294966719,4294966719
269528833,6466632,6470298,13526,4715,7186,4294967214,90,15,11080,7126,10911,4294967063,4294967173,4294966856,13837,4294963767,8737,48,621,174,4294966728,4294966728,4294966728
269534843,6467138,6470876,13508,4672,7226,4294967161,180,4294967210,11121,7123,11152,4294967049,4294966973,4294966858,13931,4294963630,8790,4294967231,549,183,4294966717,4294966717,4294966717
269540856,6466953,6470894,13447,4751,7212,4294967154,271,4294967154,11078,7121,11245,4294967058,4294966804,4294966898,13973,4294963689,8874,4294967140,474,181,4294966712,4294966712,4294966712
269548843,6466924,6470435,13448,4773,7258,4294967111,359,4294967130,11032,7128,11294,4294967088,4294966620,4294967003,13946,4294963746,8852,4294967168,363,215,4294966717,4294966717,4294966717
269554845,6467298,6471640,13401,4858,7368,4294967129,388,4294967103,10979,7105,11217,4294967075,4294966560,4294967063,13964,4294963821,8749,4294967214,355,254,4294966716,4294966716,4294966716
269560839,6466911,6470891,13418,4830,7419,4294967154,283,4294967115,10925,7088,11105,4294967026,4294966604,4294967075,13961,4294963868,8696,14,430,323,4294966722,4294966722,4294966722
269566844,6467006,6470789,13436,4900,7485,4294967192,106,4294967150,10951,7075,10929,4294966922,4294966726,4294967103,13959,4294963911,8769,141,520,410,4294966717,4294966717,4294966717
269572841,6467332,6471237,13531,4982,7632,4294967208,4294967179,4294967202,10884,7010,10892,4294966861,4294966944,4294967095,13978,4294963865,8730,214,644,472,4294966719,4294966719,4294966719
269578852,6466982,6470892,13575,5044,7593,4294967219,4294966931,4294967236,10866,6995,10753,4294966826,4294967187,4294967106,13942,4294963827,8674,243,842,494,4294966713,4294966713,4294966713
269586834,6467095,6470656,13637,5126,7522,4294967202,4294966688,21,10879,6976,10736,4294966883,179,4294967067,13863,4294963741,8736,256,1042,518,4294966727,4294966727,4294966727
269592863,6467511,6471595,13727,5179,7466,4294967210,4294966602,66,10893,7037,10748,4294966972,298,4294967054,13838,4294963787,8783,198,1172,478,4294966706,4294966706,4294966706
269598844,6467230,6471167,13761,5146,7334,4294967170,4294966594,91,10901,7052,10630,4294967014,387,4294967035,13830,4294963640,8815,74,1204,391,4294966720,4294966720,4294966720
269604831,6467178,6471131,13795,5101,7207,4294967194,4294966693,111,10882,7093,10701,4294967096,439,4294967020,13876,4294963646,8945,4294967272,1199,375,4294966729,4294966729,4294966729
269610857,6467132,6471218,13754,5102,7219,4294967218,4294966833,100,10858,7012,10748,4294967146,486,4294966991,13663,4294963588,9032,4294967212,1138,259,4294966710,4294966710,4294966710
269616842,6467190,6471431,13637,5058,7169,4294967203,4294967046,92,10892,7059,10824,4294967216,461,4294967010,13649,4294963586,9171,4294967234,887,107,4294966720,4294966720,4294966720
269622837,6466668,6470952,13576,5022,7109,4294967193,4294967230,50,10861,7083,10813,4294967209,413,4294966966,13649,4294963550,9134,4294967166,700,14,4294966724,4294966724,4294966724
269628850,6466584,6470624,13469,4939,7040,4294967206,154,28,10792,7098,10882,4294967207,323,4294966988,13586,4294963598,9119,4294967137,499,4294967257,4294966716,4294966716,4294966716
269634850,6466554,6470595,13364,4932,7176,4294967208,302,4294967292,10817,7095,11008,4294967194,217,4294966986,13636,4294963649,9111,4294967173,342,4294967241,4294966713,4294966713,4294966713
269642842,6466167,6469780,13220,4914,7290,4294967211,388,4294967258,10832,7058,11028,4294967129,68,4294966994,13556,4294963736,8949,4294967150,299,4294967244,4294966721,4294966721,4294966721
269648847,6466121,6469787,13236,4968,7308,4294967197,374,4294967245,10866,7083,11014,4294967068,4294967245,4294967013,13569,4294963796,8982,4294967220,290,4294967289,4294966716,4294966716,4294966716
269656856,6465761,6469241,13201,4953,7439,4294967146,254,4294967240,10820,7054,11105,4294967025,4294967148,4294967050,13586,4294963859,8988,4294967180,298,77,4294966713,4294966713,4294966713
269662838,6465496,6469690,13181,4976,7523,4294967068,92,4294967208,10829,6978,11074,4294967020,4294967124,4294967117,13613,4294963867,8977,4294967181,276,146,4294966722,4294966722,4294966722
269668852,6464829,6468525,13280,4958,7537,4294967030,4294967186,4294967219,10786,7019,11144,4294967016,4294967085,4294967155,13692,4294963746,8957,4294967188,237,220,4294966714,4294966714,4294966714
269676852,6464569,6467954,13374,5030,7498,4294966983,4294966921,4294967219,10845,6917,11074,4294967038,4294967091,4294967199,13780,4294963697,8904,4294967198,208,306,4294966713,4294966713,4294966713
269684846,6464322,6467785,13409,5113,7460,4294966974,4294966719,4294967286,10961,6955,10960,4294967089,4294967148,4294967274,13761,4294963717,9136,4294967234,61,289,4294966718,4294966718,4294966718
269692845,6464643,6467739,13552,5133,7360,4294966995,4294966650,9,10992,7062,10836,4294967098,4294967262,22,13838,4294963606,9223,4294967217,4294967142,291,4294966721,4294966721,4294966721
269698853,6464832,6468339,13589,5125,7289,4294967005,4294966670,4294967276,11040,7065,10851,4294967106,4294967274,57,13836,4294963638,8877,4294967228,4294967043,255,4294966714,4294966714,4294966714
269706840,6464607,6468016,13632,5061,7261,4294967076,4294966772,0,11012,6892,11065,4294967191,1,76,13811,4294963698,8823,4294967284,4294967053,250,4294966724,4294966724,4294966724
269712843,6465024,6468883,13668,5150,7230,4294967087,4294966840,24,11094,6918,11242,16,39,84,13783,4294963728,8968,4294967238,4294967059,217,4294966723,4294966723,4294966723
269718852,6464442,6468104,13704,5102,7182,4294967091,4294966867,6,10987,6910,11340,166,4294967270,22,13690,4294963643,9188,4294967203,4294967000,181,4294966713,4294966713,4294966713
269724846,6464230,6467806,13693,5062,7294,4294967108,4294966854,4294967293,10975,6953,11239,112,4294967220,4294967277,13611,4294963678,9250,4294967283,4294967052,152,4294966718,4294966718,4294966718
269732851,6464377,6467860,13703,5049,7289,4294967104,4294966816,4294967290,10920,6902,11047,4294967184,4294967200,4294967160,13575,4294963742,9107,117,4294967209,153,4294966717,4294966717,4294966717
269740846,6464048,6467452,13666,4955,7180,4294967105,4294966816,4294967265,10832,6890,10943,4294966919,4294967193,4294967090,13475,4294963754,8901,105,176,151,4294966720,4294966720,4294966720
269746852,6464760,6468700,13686,4876,7105,4294967131,4294966843,4294967235,10733,6911,11066,4294966893,4294967210,4294967037,13573,4294963797,8791,75,417,175,4294966716,4294966716,4294966716
269752856,6464887,6468452,13591,4826,7164,4294967163,4294966874,4294967215,10670,6904,10932,4294966944,4294967263,4294967021,13553,4294963777,8754,4294967267,597,149,4294966714,4294966714,4294966714
269760844,6465406,6469063,13599,4776,7180,4294967162,4294966934,4294967160,10606,7028,10925,4294967062,11,4294967005,13671,4294963742,8755,4294967180,638,155,4294966719,4294966719,4294966719
269766842,6465423,6469710,13513,4753,7260,4294967128,4294967022,4294967123,10583,7060,10879,4294967115,61,4294967021,13726,4294963746,8851,4294967232,526,166,4294966719,4294966719,4294966719
269772847,6464660,6468412,13483,4810,7111,4294967140,4294967091,4294967123,10580,7002,10810,4294967164,54,4294967048,13781,4294963737,8934,4294967170,334,148,4294966719,4294966719,4294966719
269778856,6464768,6468442,13447,4706,7158,4294967136,4294967166,4294967103,10642,7133,10658,4294967224,78,4294967081,13767,4294963648,8860,4294966971,115,125,4294966713,4294966713,4294966713
269784852,6464844,6468403,13450,4778,7153,4294967105,4294967240,4294967118,10742,7088,10664,11,129,4294967135,13800,4294963676,8821,4294966816,4294967222,78,4294966715,4294966715,4294966715
269790849,6464527,6468140,13435,4813,7108,4294967091,4294967291,4294967122,10764,7122,10599,153,145,4294967192,13767,4294963719,8786,4294966809,4294967142,73,4294966715,4294966715,4294966715
269796859,6464557,6468259,13412,4863,7100,4294967104,4294967295,4294967141,10881,7094,10570,302,142,4294967249,13764,4294963737,8838,4294966909,4294967039,117,4294966714,4294966714,4294966714
269804845,6464881,6468614,13451,4908,7256,4294967053,4294967220,4294967177,10927,7155,10540,483,92,4294967270,13687,4294963859,8862,4294967155,4294966925,118,4294966720,4294966720,4294966720
269810846,6464985,6468982,13386,4979,7326,4294967018,4294967113,4294967193,10969,7112,10618,554,87,4,13714,4294963807,8754,15,4294966968,131,4294966722,4294966722,4294966722
269816848,6464472,6467985,13502,4945,7392,4294967021,4294967009,4294967197,11011,7169,10688,591,107,45,13724,4294963837,8771,220,4294967024,168,4294966717,4294966717,4294966717
269822841,6464425,6468062,13551,5004,7392,4294966987,4294966937,4294967222,11061,7190,10799,607,86,69,13803,4294963777,8727,361,4294967127,229,4294966721,4294966721,4294966721
269828853,6464538,6468116,13622,4966,7250,4294966973,4294966876,4294967229,11057,7192,10822,602,83,114,13828,4294963755,8645,409,4294967234,263,4294966716,4294966716,4294966716
269834868,6464377,6468066,13683,4959,7337,4294967000,4294966870,4294967238,11116,7221,10913,609,123,132,13863,4294963786,8694,390,20,301,4294966706,4294966706,4294966706
269840858,6464329,6468002,13747,4977,7296,4294966983,4294966844,4294967238,11146,7197,10952,583,151,178,13915,4294963685,8683,289,134,404,4294966710,4294966710,4294966710
269846846,6464354,6467933,13736,5000,7273,4294966987,4294966893,4294967256,11177,7169,10981,500,151,218,13924,4294963701,8661,185,151,355,4294966719,4294966719,4294966719
269852846,6464365,6467875,13721,5033,7326,4294966979,4294966867,4294967264,11047,7171,11015,510,207,231,13956,4294963677,8745,127,102,352,4294966719,4294966719,4294966719
269858846,6464354,6467944,13764,5038,7281,4294966974,4294966832,4294967278,11006,7164,11121,444,228,233,13948,4294963693,8810,67,83,325,4294966721,4294966721,4294966721
269864846,6464205,6467578,13680,5043,7306,4294966975,4294966812,4294967289,11030,7215,11025,367,286,239,13950,4294963719,8876,61,48,317,4294966722,4294966722,4294966722
269870852,6464253,6467494,13710,5082,7314,4294966994,4294966762,10,10977,7150,11017,261,321,235,13875,4294963726,8904,33,95,306,4294966715,4294966715,4294966715
269876842,6464410,6467727,13664,4997,7251,4294967001,4294966709,23,10997,7184,10982,160,282,232,13823,4294963786,8773,33,149,306,4294966719,4294966719,4294966719
269882853,6464382,6467915,13594,5008,7246,4294967013,4294966643,24,10954,7170,11002,87,228,215,13797,4294963810,8765,43,288,342,4294966711,4294966711,4294966711
269888841,6464827,6468684,13610,4976,7254,4294967015,4294966586,36,10933,7202,11035,25,193,238,13842,4294963815,8590,112,406,316,4294966721,4294966721,4294966721
269894849,6464911,6468479,13555,4855,7264,4294967030,4294966546,62,10997,7203,10944,8,112,201,13982,4294963817,8574,143,479,353,4294966716,4294966716,4294966716
269900852,6464659,6468406,13553,4820,7240,4294967030,4294966566,73,10972,7233,11031,4294967210,61,205,14080,4294963790,8599,184,507,351,4294966718,4294966718,4294966718
269906859,6464735,6468354,13496,4793,7217,4294967063,4294966567,52,10977,7172,11049,4294967157,16,251,14140,4294963769,8589,110,500,359,4294966709,4294966709,4294966709
269912855,6464736,6468227,13556,4806,7140,4294967089,4294966569,78,11021,7154,11004,4294967109,4294967281,260,14206,4294963728,8673,29,446,358,4294966710,4294966710,4294966710
269918841,6464981,6468609,13551,4847,7225,4294967134,4294966603,89,10952,7127,10908,4294967141,4294967293,258,14242,4294963617,8739,4294967224,294,359,4294966722,4294966722,4294966722
269924852,6464737,6467998,13593,4839,7151,4294967184,4294966660,100,11009,7074,10931,4294967265,4294967277,286,14225,4294963618,8739,4294967170,100,364,4294966714,4294966714,4294966714
269930851,6464549,6467613,13530,4873,7144,4294967255,4294966702,139,11011,7035,10971,4294967219,5,255,14242,4294963606,8801,4294967219,4294967172,335,4294966716,4294966716,4294966716
269936847,6464274,6467277,13550,4963,7146,11,4294966737,202,10888,7014,10862,26,4294967273,237,14277,4294963585,8772,4294967271,4294967070,335,4294966715,4294966715,4294966715
269942842,6463651,6466716,13565,4988,7092,71,4294966748,222,10880,7003,10866,125,8,217,14284,4294963568,8824,92,4294966981,343,4294966723,4294966723,4294966723
269948854,6463799,6466867,13560,5030,7201,116,4294966748,272,10913,6831,10870,83,52,186,14190,4294963578,8921,245,4294966882,315,4294966714,4294966714,4294966714
269954840,6463857,6466893,13585,5062,7106,119,4294966709,288,10902,6874,10874,166,86,138,14210,4294963535,9022,389,4294966861,319,4294966721,4294966721,4294966721
269960847,6463766,6466553,13567,4974,7125,138,4294966690,295,10872,6827,10780,161,119,91,14202,4294963463,8989,591,4294966910,306,4294966716,4294966716,4294966716
269966847,6463716,6466340,13595,4989,7085,130,4294966634,298,10908,6913,10757,166,187,35,14084,4294963459,9056,729,4294967051,311,4294966720,4294966720,4294966720
269972845,6463958,6466533,13606,4972,7166,139,4294966600,284,10838,6896,10705,70,271,4294967277,14076,4294963500,8858,882,4294967207,276,4294966721,4294966721,4294966721
269978847,6463986,6466682,13602,4926,7094,114,4294966593,272,10878,6939,10794,78,305,4294967216,14000,4294963480,8770,895,98,258,4294966720,4294966720,4294966720
269984834,6464075,6466843,13618,4968,7008,131,4294966546,275,10990,6925,10778,62,338,4294967167,13937,4294963520,8741,933,347,222,4294966724,4294966724,4294966724
269990833,6464142,6466667,13593,4922,7060,119,4294966555,249,10937,6930,10826,40,367,4294967163,13899,4294963490,8753,928,447,177,4294966724,4294966724,4294966724
269996836,6464003,6466638,13630,4891,7062,133,4294966551,230,10976,6904,10750,30,419,4294967149,13796,4294963577,8758,864,632,108,4294966726,4294966726,4294966726
270002842,6463964,6466974,13622,4916,7023,139,4294966549,208,10973,6868,10783,100,428,4294967133,13808,4294963596,8748,776,709,53,4294966723,4294966723,4294966723
270008848,6463767,6467642,13674,4946,7051,116,4294966558,186,11020,6853,10788,88,438,4294967114,13744,4294963582,8788,728,704,37,4294966713,4294966713,4294966713
270014845,6464893,6468514,13682,4909,7013,132,4294966604,161,10991,6865,10808,108,435,4294967127,13647,4294963605,8693,643,679,4294967281,4294966717,4294966717,4294966717
270020846,6467025,6469858,13685,4903,7096,127,4294966644,148,10956,6805,10853,94,395,4294967083,13598,4294963600,8638,595,608,4294967250,4294966715,4294966715,4294966715
270026839,6469725,6471430,13702,4902,7089,151,4294966690,143,10900,6849,10841,124,372,4294967081,13593,4294963654,8696,594,530,4294967219,4294966721,4294966721,4294966721
270032858,6470992,6473116,13670,4905,7100,95,4294966752,108,10911,6838,10869,85,414,4294967075,13489,4294963624,8714,581,444,4294967223,4294966710,4294966710,4294966710
270038848,6470571,6474191,13641,4914,7124,120,4294966806,65,10859,6837,10809,58,387,4294967082,13457,4294963638,8749,529,362,4294967235,4294966718,4294966718,4294966718
270044851,6465621,6468380,13543,4857,7183,81,4294966816,55,10851,6868,10804,57,387,4294967070,13376,4294963645,8697,542,299,4294967219,4294966716,4294966716,4294966716
270050841,6461234,6463099,13596,4864,7079,66,4294966821,27,10918,6787,10835,24,372,4294967084,13350,4294963632,8774,585,248,4294967208,4294966718,4294966718,4294966718
270056831,6459873,6463642,13634,4819,7151,10,4294966796,14,10911,6752,10745,45,363,4294967116,13364,4294963662,8655,593,252,4294967247,4294966726,4294966726,4294966726
270062863,6460480,6464849,13653,4760,7060,4294967256,4294966781,0,10897,6823,10722,110,343,4294967136,13343,4294963702,8565,631,266,4294967266,4294966705,4294966705,4294966705
270068834,6461874,6465241,13618,4757,7004,4294967231,4294966727,4294967287,10894,6905,10645,135,321,4294967142,13404,4294963737,8668,636,332,4294967283,4294966726,4294966726,4294966726
270074838,6463470,6466698,13681,4717,7022,4294967184,4294966665,4294967250,10983,6951,10638,118,273,4294967147,13464,4294963672,8817,587,338,31,4294966725,4294966725,4294966725
270080862,6463923,6467272,13790,4707,6918,4294967181,4294966672,4294967257,10978,6900,10843,153,261,4294967186,13464,4294963650,8809,546,281,50,4294966707,4294966707,4294966707
270086854,6464259,6467276,13824,4639,6801,4294967193,4294966698,4294967239,11037,6950,10889,275,260,4294967239,13559,4294963582,8758,552,219,68,4294966716,4294966716,4294966716
270092850,6464480,6467420,13783,4644,6970,4294967225,4294966768,4294967213,10993,6988,10800,402,254,4294967291,13664,4294963619,8728,564,163,105,4294966716,4294966716,4294966716
270098839,6464476,6467277,13714,4642,7104,4294967234,4294966877,4294967180,11103,7009,10642,545,238,70,13665,4294963689,8889,522,45,147,4294966722,4294966722,4294966722
270104837,6464520,6467349,13634,4619,7126,4294967217,4294966992,4294967140,11145,6919,10793,473,241,99,13737,4294963613,9012,478,4294967230,178,4294966723,4294966723,4294966723
270110848,6464826,6467548,13526,4695,7248,4294967175,4294967100,4294967110,11109,7014,10930,410,156,122,13813,4294963646,8858,551,4294967217,231,4294966714,4294966714,4294966714
270116852,6464827,6467662,13504,4719,7275,4294967132,4294967175,4294967073,11055,6966,11086,323,120,182,13868,4294963679,8710,670,4294967188,302,4294966715,4294966715,4294966715
270122856,6465055,6468107,13608,4789,7308,4294967114,4294967158,4294967067,11015,6955,11246,474,51,170,13885,4294963693,8766,792,4294967214,371,4294966713,4294966713,4294966713
270128853,6465414,6468418,13719,4847,7248,4294967143,4294966995,4294967115,11008,6954,11249,540,4294967295,224,13850,4294963686,8900,1008,4294967214,433,4294966712,4294966712,4294966712
270134851,6465287,6468143,13791,4905,7142,4294967167,4294966778,4294967168,10973,7085,11241,429,4294967258,250,13814,4294963749,8896,1238,4294967215,502,4294966715,4294966715,4294966715
270140855,6465096,6468021,13875,4849,7024,4294967210,4294966597,4294967206,10989,7070,11008,237,4294967223,207,13814,4294963791,8977,1318,4294967224,537,4294966710,4294966710,4294966710
270146846,6465632,6468603,13929,4793,6951,4294967236,4294966518,4294967220,11065,7086,10874,31,4294967190,209,13760,4294963763,8909,1347,4294967247,559,4294966719,4294966719,4294966719
270152849,6465918,6469009,13951,4780,6927,4294967272,4294966507,4294967194,11027,7094,10784,4294967268,4294967228,198,13814,4294963803,8790,1288,15,583,4294966716,4294966716,4294966716
270158852,6465961,6469017,13949,4798,6802,4294967288,4294966616,4294967186,11050,7029,10796,4294967221,4294967290,111,13786,4294963859,8757,1195,66,607,4294966713,4294966713,4294966713
270164837,6465626,6468407,13874,4822,6941,4294967256,4294966759,4294967169,10996,6996,10775,4294967228,4294967288,100,13846,4294963915,8662,1069,119,608,4294966725,4294966725,4294966725
270170846,6465765,6468418,13808,4793,6893,4294967239,4294966909,4294967144,10912,6988,10970,4294967287,4294967288,62,13856,4294963925,8721,937,128,623,4294966719,4294966719,4294966719
270176842,6465941,6468780,13701,4802,6983,4294967178,4294967037,4294967114,10812,7011,10956,93,4294967274,26,13834,4294963849,8684,835,63,579,4294966720,4294966720,4294966720
270182860,6466037,6468897,13647,4829,6964,4294967121,4294967171,4294967125,10806,7044,10947,221,4294967264,35,13885,4294963890,8665,839,4294967242,573,4294966710,4294966710,4294966710
270188861,6466248,6468941,13629,4898,6926,4294967116,4294967277,4294967165,10761,7011,10928,361,4294967273,49,13938,4294963911,8615,807,4294967175,524,4294966710,4294966710,4294966710
270194842,6466834,6469648,13547,4902,7045,4294967155,4294967281,4294967270,10792,7138,10879,446,4294967292,59,13946,4294963959,8621,788,4294967102,499,4294966717,4294966717,4294966717
270200851,6466597,6469752,13533,4965,7128,4294967234,4294967198,15,10745,7155,10901,443,12,75,13936,4294963950,8537,737,4294967088,454,4294966716,4294966716,4294966716
270206843,6467034,6470129,13585,4999,7185,4294967284,4294967021,80,10832,7128,10882,462,68,88,13989,4294963967,8473,735,4294967111,459,4294966719,4294966719,4294966719
270212852,6467296,6470483,13597,5030,7067,23,4294966834,146,10896,7164,10890,426,109,114,14060,4294963906,8455,762,4294967177,409,4294966713,4294966713,4294966713
270218849,6467300,6470522,13647,5055,7111,45,4294966674,199,10971,7132,10912,390,131,132,14072,4294963897,8581,705,4294967232,399,4294966713,4294966713,4294966713
270224849,6467524,6470803,13683,4998,7053,47,4294966516,211,10994,7073,10949,364,156,133,14065,4294963813,8620,670,4294967271,321,4294966715,4294966715,4294966715
270230843,6467469,6470576,13686,5005,7039,14,4294966431,256,11043,7134,10945,336,86,141,14032,4294963790,8698,657,4294967274,297,4294966720,4294966720,4294966720
270236845,6467307,6470532,13693,4965,7067,4294967279,4294966393,257,11074,7180,10945,161,26,111,14067,4294963732,8704,660,1,231,4294966720,4294966720,4294966720
270242838,6467266,6470605,13710,5008,6974,4294967271,4294966436,230,11075,7056,11007,4294967188,4294967276,134,14027,4294963771,8728,672,22,222,4294966723,4294966723,4294966723
270248870,6467288,6470412,13791,4953,7002,4294967230,4294966500,224,11046,7038,10932,4294967065,4294967235,139,13933,4294963777,8731,668,122,174,4294966702,4294966702,4294966702
270254850,6467205,6470356,13795,4956,6907,4294967226,4294966537,192,11084,7006,10843,4294967056,4294967232,137,13924,4294963804,8729,663,220,192,4294966716,4294966716,4294966716
270260853,6467143,6470261,13806,4935,6903,4294967199,4294966553,165,11070,7024,10825,4294966987,4294967275,123,13861,4294963831,8708,620,328,189,4294966716,4294966716,4294966716
270266854,6466870,6469754,13812,4977,6891,4294967200,4294966644,126,11027,6950,10819,4294966965,35,87,13844,4294963888,8699,562,434,184,4294966714,4294966714,4294966714
270272843,6466895,6469868,13811,4939,6853,4294967213,4294966681,99,10934,6927,10808,4294966945,132,75,13752,4294963849,8693,501,535,227,4294966717,4294966717,4294966717
270278840,6466553,6469732,13772,4909,6801,4294967197,4294966754,77,10957,6930,10750,4294967043,239,62,13751,4294963867,8669,470,632,235,4294966724,4294966724,4294966724
270284845,6466286,6469341,13698,4955,6858,4294967235,4294966780,53,10910,6894,10753,4294967165,332,60,13834,4294963855,8710,424,632,243,4294966722,4294966722,4294966722
270290838,6466052,6469011,13709,4912,6787,4294967228,4294966848,55,10939,6897,10761,4294967259,421,42,13709,4294963843,8679,357,671,240,4294966723,4294966723,4294966723
270296833,6465882,6468735,13678,4859,6803,4294967223,4294966841,16,10886,6869,10784,80,490,46,13650,4294963870,8767,334,676,260,4294966725,4294966725,4294966725
270302850,6465452,6468071,13730,4885,6822,4294967237,4294966867,20,10878,6867,10739,197,520,60,13728,4294963839,8762,328,652,253,4294966716,4294966716,4294966716
270308859,6465249,6467769,13670,4893,6816,4294967238,4294966873,4294967291,10868,6866,10766,227,522,46,13787,4294963892,8801,296,588,266,4294966708,4294966708,4294966708
270314843,6464922,6467369,13636,4872,6783,4294967252,4294966866,4294967264,10838,6863,10851,282,516,54,13730,4294963780,8844,265,539,251,4294966720,4294966720,4294966720
270320857,6464549,6466776,13642,4849,6902,4294967256,4294966860,4294967255,10880,6933,10711,306,491,67,13719,4294963770,8922,250,472,235,4294966711,4294966711,4294966711
270326847,6464296,6466451,13644,4853,6947,4294967260,4294966876,4294967232,10922,6928,10668,184,441,85,13744,4294963776,8842,235,396,220,4294966718,4294966718,4294966718
270332832,6464569,6466786,13608,4838,6994,4294967262,4294966880,4294967187,10939,6904,10731,113,431,91,13732,4294963711,8689,296,300,246,4294966725,4294966725,4294966725
270338861,6464947,6467251,13689,4841,6903,4294967253,4294966914,4294967191,10939,6861,10894,81,412,112,13820,4294963752,8601,368,302,261,4294966708,4294966708,4294966708
270344862,6464503,6466881,13663,4931,6858,4294967243,4294966935,4294967188,10938,6855,10965,99,364,154,13791,4294963820,8754,410,314,194,4294966711,4294966711,4294966711
270350858,6464673,6466962,13655,4856,6985,4294967275,4294966899,4294967202,10921,6846,11109,230,275,206,13757,4294963793,8967,391,263,274,4294966710,4294966710,4294966710
270356836,6464769,6467113,13753,4890,6902,4294967282,4294966870,4294967216,10958,6944,11048,326,153,228,13805,4294963776,9079,418,238,247,4294966725,4294966725,4294966725
270362844,6464595,6467017,13783,4933,6831,8,4294966868,4294967255,10972,7055,10972,280,115,247,13708,4294963677,9063,497,165,269,4294966722,4294966722,4294966722
270368840,6464610,6466958,13867,4933,6766,4294967294,4294966824,4294967266,11028,7042,10871,38,119,231,13865,4294963736,8938,677,154,287,4294966721,4294966721,4294966721
270374840,6464603,6466970,13860,4828,6883,4294967291,4294966822,4294967286,11012,6987,10959,4294967235,90,232,13880,4294963785,8976,782,212,250,4294966723,4294966723,4294966723
270380851,6464245,6466765,13868,4890,6912,4294967282,4294966822,4294967257,11020,6935,10973,4294967246,106,206,13828,4294963873,8865,758,215,285,4294966714,4294966714,4294966714
270386838,6464513,6466920,13831,4826,6809,4294967282,4294966838,4294967249,11030,6958,11114,80,73,167,13814,4294963829,8935,737,311,287,4294966725,4294966725,4294966725
270392849,6464773,6467170,13829,4860,6832,4294967271,4294966843,4294967220,11022,6912,11036,134,123,197,13835,4294963836,8907,675,332,324,4294966716,4294966716,4294966716
270398854,6464965,6467534,13872,4854,6830,4294967245,4294966843,4294967219,10952,6907,11079,163,171,179,13846,4294963872,8899,598,359,352,4294966713,4294966713,4294966713
270404856,6464817,6467276,13881,4873,6784,4294967220,4294966870,4294967189,10969,6921,10985,231,203,135,13761,4294963824,8978,567,330,374,4294966716,4294966716,4294966716
270410849,6465106,6467364,13843,4882,6838,4294967173,4294966881,4294967151,10969,6896,10860,210,240,101,13826,4294963833,8945,573,337,351,4294966715,4294966715,4294966715
270416853,6464824,6467268,13820,4869,6854,4294967186,4294966925,4294967162,10951,6938,10925,241,280,104,13722,4294963816,8856,522,317,301,4294966714,4294966714,4294966714
270422858,6464555,6467039,13789,4872,6914,4294967136,4294966902,4294967184,10901,6927,10883,234,362,80,13741,4294963917,8815,518,287,289,4294966711,4294966711,4294966711
270428862,6464954,6467348,13763,4937,6782,4294967163,4294966888,4294967186,10863,6998,10849,217,398,71,13758,4294963945,8855,499,273,285,4294966706,4294966706,4294966706
270434859,6464907,6467270,13819,4889,6852,4294967151,4294966852,4294967219,10848,7005,10885,228,419,89,13771,4294963882,8785,495,246,249,4294966708,4294966708,4294966708
270440844,6464677,6467153,13780,4960,6918,4294967163,4294966813,4294967262,10843,6955,10915,225,407,62,13722,4294963926,8771,470,232,250,4294966718,4294966718,4294966718
270446842,6464749,6467097,13745,4974,6843,4294967163,4294966760,4294967284,10869,6999,11008,185,418,62,13750,4294963961,8785,488,227,244,4294966723,4294966723,4294966723
270452852,6464952,6467388,13744,4987,6882,4294967186,4294966743,33,10839,6986,11016,102,364,51,13774,4294963957,8809,493,222,232,4294966715,4294966715,4294966715
270458857,6465032,6467619,13796,4975,6966,4294967185,4294966690,63,10855,6937,11003,71,322,61,13740,4294963931,8766,476,230,229,4294966710,4294966710,4294966710
270464827,6464791,6467308,13801,4957,6859,4294967211,4294966674,58,10851,6996,10987,25,323,101,13752,4294963908,8763,476,216,218,4294966731,4294966731,4294966731
270470836,6464703,6466717,13782,4953,6850,4294967168,4294966687,51,10816,6953,10896,46,295,121,13733,4294963898,8725,464,236,226,4294966723,4294966723,4294966723
270476846,6464650,6466789,13787,4905,6914,4294967140,4294966680,73,10895,6977,10904,13,275,142,13711,4294963853,8885,455,231,220,4294966721,4294966721,4294966721
270482840,6464600,6466828,13749,4864,6909,4294967115,4294966696,62,10915,6971,10904,40,228,122,13751,4294963908,8856,443,223,228,4294966721,4294966721,4294966721
270488855,6464186,6466334,13753,4860,6846,4294967087,4294966659,66,10942,6943,10964,44,215,121,13742,4294963813,8863,403,209,264,4294966713,4294966713,4294966713
270494858,6464029,6466194,13728,4862,6858,4294967080,4294966683,59,10920,6952,10896,54,199,157,13739,4294963902,8853,398,206,246,4294966708,4294966708,4294966708
270500844,6464348,6466602,13732,4904,6899,4294967070,4294966674,65,10970,7018,10856,73,186,190,13699,4294963839,8834,377,183,239,4294966720,4294966720,4294966720
270506842,6464238,6466400,13824,4840,6760,4294967105,4294966688,78,10956,6923,10890,10,211,199,13744,4294963854,8768,364,191,273,4294966720,4294966720,4294966720
270512834,6464400,6466693,13745,4840,6763,4294967084,4294966678,90,11018,6943,11013,31,171,204,13714,4294963873,8786,318,187,269,4294966728,4294966728,4294966728
270518838,6464518,6467001,13786,4828,6862,4294967124,4294966687,106,11044,6991,10936,58,154,213,13791,4294963851,8701,306,206,307,4294966725,4294966725,4294966725
270524838,6464555,6466954,13838,4873,6814,4294967136,4294966684,111,11029,6991,10960,4294967274,164,201,13823,4294963881,8785,298,217,341,4294966722,4294966722,4294966722
270530835,6464560,6467103,13820,4787,6861,4294967155,4294966717,111,11013,6985,10965,3,138,185,13783,4294963811,8833,277,218,356,4294966727,4294966727,4294966727
270536848,6464347,6466821,13818,4846,6801,4294967200,4294966761,115,11023,6975,10943,78,129,204,13761,4294963832,8823,267,224,385,4294966717,4294966717,4294966717
270542835,6464474,6466766,13875,4816,6730,4294967167,4294966789,83,11022,6960,10986,4294967224,162,201,13858,4294963833,8765,253,229,364,4294966726,4294966726,4294966726
270548850,6464378,6466697,13851,4818,6769,4294967164,4294966810,86,11044,6893,10960,4294967214,120,194,13803,4294963816,8809,254,279,400,4294966715,4294966715,4294966715
270554848,6464325,6466542,13881,4809,6764,4294967144,4294966810,49,11003,6886,10986,4294967226,96,209,13780,4294963791,8801,250,237,399,4294966718,4294966718,4294966718
270560859,6464576,6466509,13902,4833,6888,4294967142,4294966799,35,11046,6895,10877,4294967164,162,208,13774,4294963795,8727,265,267,423,4294966709,4294966709,4294966709
270566843,6464987,6466953,13903,4861,6854,4294967130,4294966792,32,10997,6839,10924,4294967136,124,245,13792,4294963793,8871,295,274,420,4294966718,4294966718,4294966718
270572840,6465239,6467167,13882,4849,6837,4294967108,4294966753,12,11052,6880,10927,4294967095,98,221,13776,4294963802,8847,250,319,411,4294966724,4294966724,4294966724
270578857,6464814,6466936,13867,4872,6761,4294967118,4294966713,13,11030,6798,10976,4294967120,126,261,13749,4294963730,8859,218,343,402,4294966713,4294966713,4294966713
270584849,6464791,6466938,13868,4847,6807,4294967137,4294966694,25,11036,6813,10963,4294967207,138,287,13755,4294963814,8818,179,347,423,4294966717,4294966717,4294966717
270590857,6464629,6466574,13948,4866,6807,4294967159,4294966653,22,10981,6762,10949,4294967184,216,242,13761,4294963791,8784,188,375,404,4294966710,4294966710,4294966710
270596832,6464577,6466304,13938,4823,6685,4294967177,4294966657,32,10893,6732,10956,4294967147,219,224,13700,4294963821,8907,163,397,397,4294966728,4294966728,4294966728
270602847,6464619,6466396,13877,4866,6781,4294967186,4294966670,23,10966,6697,10925,4294967144,237,182,13716,4294963795,8831,194,396,390,4294966718,4294966718,4294966718
270608838,6464355,6465987,13865,4821,6653,4294967215,4294966676,17,10943,6691,10871,4294967139,304,165,13758,4294963778,8783,259,398,387,4294966724,4294966724,4294966724
270614830,6464285,6465843,13848,4854,6687,4294967205,4294966694,16,10956,6752,10771,4294967171,329,178,13718,4294963780,8865,272,402,369,4294966729,4294966729,4294966729
270620869,6464424,6465752,13855,4846,6683,4294967211,4294966674,15,10952,6695,10872,4294967221,357,177,13731,4294963744,8881,259,401,339,4294966705,4294966705,4294966705
270626862,6464306,6465568,13826,4809,6734,4294967236,4294966694,18,10935,6737,10943,4294967280,349,140,13744,4294963777,8909,232,415,318,4294966707,4294966707,4294966707
270632851,6464627,6466038,13837,4854,6764,4294967186,4294966716,20,10999,6732,10989,18,346,167,13784,4294963744,8843,238,415,314,4294966713,4294966713,4294966713
270638843,6464481,6466805,13844,4844,6682,4294967209,4294966725,16,10965,6715,10878,86,345,142,13715,4294963759,8910,212,429,291,4294966718,4294966718,4294966718
270644863,6464505,6467009,13810,4840,6747,4294967189,4294966758,22,11007,6732,10860,94,313,175,13743,4294963728,8825,175,381,319,4294966709,4294966709,4294966709
270650847,6465977,6468230,13907,4822,6603,4294967175,4294966767,24,11010,6717,10909,108,301,189,13671,4294963759,8933,115,393,291,4294966718,4294966718,4294966718
270656859,6467739,6469731,13837,4864,6554,4294967205,4294966780,38,11002,6700,10928,159,312,203,13759,4294963676,8868,103,401,273,4294966709,4294966709,4294966709
270662844,6470251,6472423,13817,4834,6650,4294967148,4294966816,21,11030,6667,10943,167,298,196,13798,4294963703,8887,93,366,263,4294966716,4294966716,4294966716
270668832,6470624,6474213,13793,4780,6678,4294967183,4294966811,54,11010,6695,10891,215,309,188,13731,4294963696,8831,110,371,261,4294966728,4294966728,4294966728
270674863,6466303,6468590,13790,4796,6655,4294967180,4294966803,46,10972,6665,10916,272,301,190,13725,4294963680,8905,109,351,250,4294966707,4294966707,4294966707
270680825,6462064,6462567,13762,4737,6695,4294967217,4294966777,55,11071,6792,10900,365,224,198,13766,4294963678,8940,128,330,266,4294966730,4294966730,4294966730
270686845,6460681,6462576,13777,4811,6686,4294967234,4294966781,62,11099,6753,10942,260,196,187,13736,4294963691,8862,113,323,249,4294966721,4294966721,4294966721
270692845,6460718,6464385,13890,4769,6530,4294967238,4294966761,70,11075,6704,10989,179,163,203,13730,4294963672,8869,156,316,251,4294966720,4294966720,4294966720
270698830,6461654,6464242,13984,4785,6680,4294967247,4294966709,84,11102,6873,10936,222,120,167,13761,4294963724,8726,201,364,236,4294966726,4294966726,4294966726
270704841,6462132,6464300,14032,4766,6647,4294967227,4294966671,98,11104,6839,10734,56,144,172,13753,4294963695,8835,218,334,249,4294966723,4294966723,4294966723
270710839,6463438,6465392,13937,4742,6607,4294967230,4294966644,70,11090,6777,10910,26,115,169,13731,4294963718,8830,234,350,265,4294966721,4294966721,4294966721
270716839,6464744,6466871,14062,4707,6591,4294967242,4294966673,81,11100,6719,10967,14,131,176,13760,4294963685,8691,242,371,286,4294966723,4294966723,4294966723
270722853,6464893,6467133,14145,4661,6576,4294967243,4294966677,61,11122,6825,10821,32,174,147,13764,4294963695,8760,257,407,284,4294966715,4294966715,4294966715
270728856,6464743,6466652,14023,4766,6648,4294967271,4294966676,34,11077,6772,10688,78,246,149,13789,4294963749,8990,231,379,303,4294966711,4294966711,4294966711
270734842,6465120,6467108,13974,4730,6773,4294967272,4294966763,4294967290,11099,6709,10789,138,297,197,13741,4294963765,8953,165,362,319,4294966718,4294966718,4294966718
270740895,6465436,6467438,13956,4723,6763,4294967204,4294966814,4294967295,11040,6744,10789,162,298,158,13729,4294963636,8851,157,337,325,4294966692,4294966692,4294966692
270746846,6465615,6467665,13883,4736,6771,4294967202,4294966853,4294967261,11091,6825,10914,138,276,157,13745,4294963654,8659,201,302,313,4294966720,4294966720,4294966720
270752849,6465613,6467608,13867,4764,6665,4294967140,4294966832,4294967239,11093,6724,11132,103,248,184,13739,4294963689,8646,250,324,317,4294966718,4294966718,4294966718
270758841,6465518,6467589,13946,4803,6746,4294967182,4294966824,4294967267,11047,6592,11234,163,225,182,13732,4294963701,8694,426,321,340,4294966721,4294966721,4294966721
270764854,6465968,6467852,14030,4800,6558,4294967214,4294966760,4294967294,10999,6678,11271,329,163,153,13651,4294963722,9031,568,313,339,4294966715,4294966715,4294966715
270770851,6466366,6468221,14028,4774,6539,4294967236,4294966720,24,10981,6739,11117,148,158,164,13610,4294963716,9005,613,249,341,4294966714,4294966714,4294966714
270776842,6466354,6468460,14057,4858,6380,4294967284,4294966763,23,10926,6704,10857,4294967248,135,119,13608,4294963759,8987,613,232,329,4294966723,4294966723,4294966723
270782843,6466262,6468447,14008,4768,6317,4294967289,4294966892,4294967287,10920,6698,10771,4294967195,81,119,13649,4294963693,8951,581,215,318,4294966720,4294966720,4294966720
270788858,6466107,6468188,14010,4784,6439,4294967270,4294967043,4294967266,10876,6668,10719,4294967127,124,46,13624,4294963772,8902,483,229,271,4294966712,4294966712,4294966712
270794838,6466450,6468623,13944,4782,6527,4294967228,4294967177,4294967267,10878,6643,10726,4294967148,88,10,13626,4294963810,8728,347,229,276,4294966722,4294966722,4294966722
270800834,6466517,6468804,13905,4757,6544,4294967203,4294967282,4294967228,10869,6653,10691,4294967206,47,4294967247,13617,4294963845,8849,229,192,269,4294966725,4294966725,4294966725
270806848,6466693,6468910,13791,4829,6482,4294967163,66,4294967222,10876,6651,10842,4294967289,27,4294967204,13671,4294963802,8866,167,136,287,4294966714,4294966714,4294966714
270812864,6466846,6469113,13702,4859,6560,4294967099,91,4294967220,10880,6707,10894,112,4294967270,4294967206,13744,4294963766,8930,169,51,259,4294966706,4294966706,4294966706
270818864,6466897,6469188,13660,4906,6579,4294967105,113,4294967261,10913,6680,10942,211,4294967221,4294967201,13702,4294963774,8953,142,4294967237,216,4294966705,4294966705,4294966705
270824847,6467235,6469640,13692,4912,6629,4294967141,56,4294967289,10933,6669,10961,461,4294967100,4294967198,13796,4294963737,8898,95,4294967152,240,4294966718,4294966718,4294966718
270830850,6467286,6469730,13776,4936,6681,4294967194,4294967240,41,10995,6806,10920,815,4294967030,4294967218,13853,4294963729,8868,47,4294967094,209,4294966714,4294966714,4294966714
270836836,6467317,6469901,13843,4893,6743,4294967233,4294967113,86,11127,6911,10936,594,4294967163,4294967274,13880,4294963675,8793,79,4294967132,220,4294966723,4294966723,4294966723
270842856,6467750,6470155,13933,4842,6758,4294967246,4294966970,113,11217,6879,10914,695,4294967153,4294967274,13905,4294963701,8796,126,4294967187,215,4294966711,4294966711,4294966711
270848846,6468093,6470683,13955,4873,6725,4294967273,4294966832,129,11247,6971,10928,543,4294967277,4294967290,13991,4294963655,8768,244,4294967245,205,4294966718,4294966718,4294966718
270854844,6468204,6470843,14049,4848,6754,5,4294966777,104,11277,6895,10903,323,77,43,13989,4294963676,8848,278,95,196,4294966719,4294966719,4294966719
270860843,6467739,6470605,14099,4808,6766,5,4294966745,147,11283,6897,10924,283,97,75,13943,4294963681,8898,331,173,203,4294966717,4294966717,4294966717
270866855,6468034,6470807,14109,4779,6796,1,4294966726,158,11354,6919,10982,137,140,109,13862,4294963653,8899,355,263,208,4294966709,4294966709,4294966709
270872843,6467963,6470591,14143,4789,6682,4294967295,4294966741,150,11330,6877,10975,4294967272,171,107,13857,4294963690,8837,429,327,199,4294966721,4294966721,4294966721
270878838,6467639,6470513,14094,4722,6677,29,4294966777,141,11313,6847,10964,4294967170,191,115,13853,4294963677,8897,448,393,236,4294966723,4294966723,4294966723
270884842,6467331,6469888,14129,4746,6643,4294967295,4294966807,129,11218,6825,11079,4294967110,247,118,13724,4294963723,8839,499,438,255,4294966721,4294966721,4294966721
270890846,6467329,6469837,14110,4818,6583,18,4294966789,117,11170,6757,10961,4294967120,284,122,13748,4294963778,8849,514,529,276,4294966717,4294966717,4294966717
270896845,6467318,6469819,14077,4779,6553,4294967270,4294966825,118,11120,6808,10960,4294967112,284,116,13705,4294963817,8809,469,578,301,4294966719,4294966719,4294966719
270902839,6467332,6469744,13998,4768,6558,4294967254,4294966831,80,11088,6816,10929,4294967141,329,104,13628,4294963778,8793,446,586,326,4294966719,4294966719,4294966719
270908838,6467464,6469641,13979,4732,6580,4294967216,4294966864,65,11042,6754,10911,4294967163,356,115,13661,4294963810,8820,398,593,333,4294966725,4294966725,4294966725
270914845,6467095,6469247,14002,4819,6495,4294967177,4294966893,45,11025,6801,11003,4294967165,371,109,13629,4294963809,8856,289,557,345,4294966718,4294966718,4294966718
270920835,6466364,6468306,13954,4788,6498,4294967134,4294966910,50,11017,6759,10997,4294967186,357,115,13619,4294963858,8841,201,565,376,4294966727,4294966727,4294966727
270926847,6466064,6467874,13903,4768,6528,4294967131,4294966946,79,10888,6704,10970,4294967234,348,117,13552,4294963758,8781,171,563,380,4294966718,4294966718,4294966718
270932839,6465947,6467700,13948,4839,6506,4294967145,4294966999,66,10896,6705,10947,4294967260,300,115,13643,4294963801,8846,119,516,395,4294966721,4294966721,4294966721
270938838,6465708,6467318,13914,4793,6500,4294967189,4294967026,61,10998,6691,10895,4294967267,288,140,13613,4294963764,8837,80,466,375,4294966723,4294966723,4294966723
270944845,6465692,6467371,13898,4822,6574,4294967194,4294967039,30,10888,6676,10870,4294967260,277,118,13636,4294963710,8838,91,435,380,4294966716,4294966716,4294966716
270950832,6465629,6467204,13905,4835,6582,4294967245,4294967031,55,10931,6739,10807,4294967220,273,132,13663,4294963721,8927,78,365,343,4294966728,4294966728,4294966728
270956836,6465742,6467397,13862,4812,6570,4294967258,4294967008,62,10933,6751,10728,4294967161,284,129,13672,4294963723,8918,82,317,339,4294966723,4294966723,4294966723
270962847,6465446,6467119,13901,4787,6706,4294967275,4294966982,62,10876,6672,10791,4294967113,278,131,13715,4294963735,8710,68,285,314,4294966719,4294966719,4294966719
270968831,6465600,6467080,13851,4816,6602,4294967258,4294966972,42,10946,6715,10896,4294967094,279,154,13738,4294963741,8642,85,321,316,4294966729,4294966729,4294966729
270974849,6465090,6466703,13922,4840,6542,4294967257,4294966925,38,10964,6742,10966,4294967147,271,156,13750,4294963739,8882,64,370,304,4294966714,4294966714,4294966714
270980854,6464772,6466282,13942,4834,6611,4294967267,4294966920,78,10995,6670,10992,4294967246,258,182,13751,4294963687,8949,95,363,334,4294966710,4294966710,4294966710
270986859,6465163,6466646,13950,4841,6571,4294967279,4294966847,116,11030,6680,11060,4294967269,221,186,13767,4294963659,9028,97,354,327,4294966711,4294966711,4294966711
270992842,6465341,6466949,13979,4809,6500,4294967272,4294966838,132,11067,6675,11009,4294967289,144,202,13711,4294963615,8981,157,362,298,4294966718,4294966718,4294966718
270998841,6465057,6466691,13979,4780,6495,4294967295,4294966841,145,11112,6703,10926,4294967195,166,211,13720,4294963654,8872,245,363,252,4294966720,4294966720,4294966720
271004841,6465012,6466683,13978,4737,6463,4294967294,4294966889,151,11168,6672,10909,4294967117,162,162,13749,4294963682,8928,308,417,246,4294966723,4294966723,4294966723
271010852,6464907,6466461,13998,4713,6550,7,4294966893,127,11125,6667,10893,4294967126,175,153,13768,4294963730,8808,271,509,258,4294966711,4294966711,4294966711
271016857,6465060,6466688,14018,4638,6466,1,4294966916,109,11103,6627,10939,4294967230,137,109,13731,4294963751,8909,226,593,264,4294966706,4294966706,4294966706
271022842,6465203,6466808,14000,4719,6554,4294967265,4294966939,114,11104,6602,10964,4294967239,138,83,13737,4294963663,8891,156,666,308,4294966720,4294966720,4294966720
271028867,6465639,6467318,14047,4631,6379,4294967240,4294966951,71,11206,6597,10938,4294967241,158,69,13730,4294963637,8920,52,628,292,4294966702,4294966702,4294966702
271034830,6465358,6467224,14084,4658,6359,4294967179,4294966977,19,11097,6570,10862,4294967250,165,35,13755,4294963608,8943,17,592,296,4294966730,4294966730,4294966730
271040843,6465237,6467143,14058,4670,6368,4294967175,4294967017,4294967267,11137,6591,10975,4294967290,200,17,13679,4294963571,8903,4294967280,549,291,4294966720,4294966720,4294966720
271046854,6465433,6467096,14099,4627,6445,4294967157,4294966982,4294967243,11113,6615,10885,12,185,9,13693,4294963605,8894,4294967255,495,258,4294966714,4294966714,4294966714
271052858,6465600,6467123,14067,4701,6403,4294967148,4294966985,4294967220,11131,6686,10882,40,194,24,13716,4294963648,8857,4294967249,460,266,4294966712,4294966712,4294966712
271058830,6465412,6467114,14034,4750,6483,4294967157,4294966953,4294967219,11094,6712,10888,68,161,16,13722,4294963633,8903,4294967275,446,259,4294966726,4294966726,4294966726
271064852,6465209,6466814,14071,4770,6550,4294967170,4294966892,4294967249,11100,6654,10923,92,154,24,13671,4294963679,8794,43,445,252,4294966715,4294966715,4294966715
271070863,6465268,6466734,14046,4813,6566,4294967167,4294966882,4294967230,11074,6622,10872,108,214,24,13789,4294963602,8897,64,425,243,4294966707,4294966707,4294966707
271076863,6465258,6466916,13988,4841,6569,4294967232,4294966831,4294967293,11118,6662,10869,98,207,8,13740,4294963631,8823,65,432,241,4294966705,4294966705,4294966705
271082842,6465285,6467021,13964,4772,6517,4294967225,4294966819,4294967295,11074,6619,10882,68,229,36,13734,4294963606,8852,94,454,236,4294966722,4294966722,4294966722
271088833,6465278,6466992,13967,4806,6507,4294967260,4294966793,22,11105,6604,10860,28,254,56,13677,4294963577,8838,141,467,242,4294966728,4294966728,4294966728
271094849,6465257,6466823,13976,4775,6515,4294967280,4294966734,28,11088,6611,10773,23,270,54,13721,4294963620,8938,166,493,218,4294966720,4294966720,4294966720
271100856,6465339,6466940,13989,4719,6482,4294967295,4294966695,35,11104,6624,10814,18,313,52,13699,4294963580,8895,159,566,227,4294966716,4294966716,4294966716
271106847,6465575,6467002,14039,4709,6450,4294967284,4294966704,23,11113,6631,10884,28,338,59,13732,4294963594,8912,132,574,237,4294966716,4294966716,4294966716
271112862,6466048,6467643,13991,4767,6460,6,4294966695,22,11124,6631,10826,36,402,54,13682,4294963570,8910,101,592,223,4294966712,4294966712,4294966712
271118834,6465985,6467903,14040,4672,6434,4294967254,4294966733,12,11121,6628,10860,61,400,83,13711,4294963619,8952,91,580,217,4294966727,4294966727,4294966727
271124839,6466078,6467944,14025,4668,6360,4294967276,4294966799,21,11154,6670,10841,70,398,66,13650,4294963711,8869,37,618,205,4294966721,4294966721,4294966721
271130843,6466375,6468230,14002,4633,6383,4294967271,4294966853,16,11132,6649,10892,74,436,56,13674,4294963606,8936,24,639,212,4294966719,4294966719,4294966719
271136857,6466349,6468063,14054,4698,6333,4294967295,4294966948,30,11121,6644,10903,68,420,78,13668,4294963683,8853,37,662,216,4294966715,4294966715,4294966715
271142862,6465872,6467687,14043,4695,6392,25,4294967038,58,11136,6629,10867,47,414,45,13625,4294963651,8816,53,652,209,4294966706,4294966706,4294966706
271148848,6465730,6467730,14054,4637,6390,43,4294967113,40,11135,6641,10903,68,396,64,13623,4294963634,8951,33,661,235,4294966714,4294966714,4294966714
271154843,6465899,6467601,14030,4655,6432,46,4294967153,29,11093,6585,10847,61,398,42,13626,4294963611,8907,6,657,239,4294966721,4294966721,4294966721
271160849,6465643,6467593,14062,4708,6505,87,4294967179,28,11111,6642,10877,60,393,29,13612,4294963626,8984,7,648,261,4294966719,4294966719,4294966719
271166856,6465873,6467739,14011,4660,6418,78,4294967209,25,11095,6616,10898,82,401,39,13568,4294963577,8851,25,580,272,4294966715,4294966715,4294966715
271172866,6465742,6467677,14035,4738,6444,54,4294967199,12,11100,6593,10772,57,383,33,13599,4294963574,8930,41,603,274,4294966704,4294966704,4294966704
271178845,6465843,6467672,14009,4695,6469,39,4294967211,37,11076,6721,10884,40,396,51,13608,4294963552,8922,59,564,288,4294966716,4294966716,4294966716
271184831,6466065,6467923,14038,4666,6430,26,4294967191,12,11090,6643,10931,88,404,65,13620,4294963565,8942,69,574,295,4294966728,4294966728,4294966728
271190854,6465779,6467468,14056,4658,6533,48,4294967148,19,11098,6606,10946,95,430,68,13564,4294963589,8986,62,542,308,4294966712,4294966712,4294966712
271196871,6465653,6467454,14037,4670,6436,44,4294967162,23,11053,6539,10918,116,469,86,13567,4294963527,8895,94,509,299,4294966702,4294966702,4294966702
271202839,6465282,6466988,14044,4654,6375,36,4294967175,50,11094,6571,10841,135,476,87,13568,4294963560,8939,105,550,326,4294966725,4294966725,4294966725
271208846,6465343,6466791,14046,4722,6450,47,4294967163,57,11069,6504,10931,124,494,77,13572,4294963578,8948,89,559,319,4294966715,4294966715,4294966715
271214847,6465381,6466720,14023,4683,6342,62,4294967186,69,11084,6539,10831,91,484,94,13558,4294963546,8942,119,558,315,4294966715,4294966715,4294966715
271220833,6465627,6466803,14073,4682,6457,78,4294967205,70,11071,6555,10884,56,499,61,13588,4294963574,8960,109,580,317,4294966726,4294966726,4294966726
271226834,6465747,6466902,14040,4703,6367,113,4294967228,50,11021,6570,10885,56,498,79,13552,4294963554,8896,125,611,325,4294966728,4294966728,4294966728
271232858,6465728,6466929,14017,4737,6396,83,18,36,11038,6612,10868,49,506,75,13542,4294963527,8893,134,656,331,4294966715,4294966715,4294966715
271238843,6465601,6467051,13971,4703,6365,59,92,4294967293,11036,6639,10995,54,506,77,13603,4294963562,8844,111,678,327,4294966722,4294966722,4294966722
271244846,6465253,6466694,14023,4694,6348,48,120,4294967263,11019,6610,10889,57,485,63,13508,4294963568,8894,86,706,338,4294966718,4294966718,4294966718
271250847,6465611,6466965,13980,4703,6478,51,203,4294967243,11027,6610,10860,80,473,76,13598,4294963559,8845,87,728,335,4294966715,4294966715,4294966715
271256844,6465457,6467854,13980,4674,6432,30,224,4294967220,11082,6578,10846,60,504,50,13534,4294963564,8898,85,738,326,4294966720,4294966720,4294966720
271262848,6466028,6468587,14002,4680,6413,69,227,4294967217,11020,6561,10858,30,490,38,13513,4294963560,8908,77,763,302,4294966717,4294966717,4294966717
271268830,6467450,6470010,14015,4665,6446,51,238,4294967183,11042,6613,10840,4294967286,492,29,13554,4294963570,8958,69,785,280,4294966728,4294966728,4294966728
271274829,6469632,6471829,14012,4684,6429,81,232,4294967209,11043,6576,10755,4294967254,514,36,13604,4294963576,8957,55,782,285,4294966730,4294966730,4294966730
271280829,6471395,6475065,13996,4742,6363,89,229,4294967203,11066,6586,10845,4294967263,531,23,13592,4294963580,9045,29,803,289,4294966729,4294966729,4294966729
271286862,6468952,6472787,14000,4705,6431,111,241,4294967216,11004,6583,10854,4294967266,535,21,13616,4294963552,8980,21,799,258,4294966710,4294966710,4294966710
271292850,6465158,6465809,13916,4698,6472,115,256,4294967230,11068,6580,10812,4294967257,527,15,13642,4294963550,8912,4294967293,754,243,4294966718,4294966718,4294966718
271298851,6461979,6461688,13951,4736,6499,138,288,4294967215,11100,6606,10940,4294967242,502,11,13640,4294963531,9027,4294967293,780,257,4294966716,4294966716,4294966716
271304844,6461333,6463348,13990,4690,6382,145,336,4294967236,11100,6605,11121,4294967271,496,4294967292,13632,4294963543,9153,4294967280,748,238,4294966720,4294966720,4294966720
271310852,6461464,6464275,14005,4758,6435,175,382,4294967234,11077,6571,11181,4294967293,462,31,13666,4294963542,9025,4294967288,708,222,4294966715,4294966715,4294966715
271316858,6462574,6464650,13992,4728,6474,198,416,4294967232,11142,6515,11129,118,434,17,13638,4294963532,9179,30,693,247,4294966711,4294966711,4294966711
271322841,6463322,6465225,13921,4729,6481,211,447,4294967180,11062,6536,11059,151,407,4294967287,13619,4294963521,9215,27,649,267,4294966721,4294966721,4294966721
271328846,6464546,6466407,13982,4699,6462,183,467,4294967147,11090,6453,11180,170,371,2,13618,4294963497,9132,24,603,266,4294966718,4294966718,4294966718
271334854,6465166,6467307,14124,4681,6400,133,489,4294967107,11057,6475,11183,214,366,4294967273,13636,4294963481,9113,56,594,286,4294966712,4294966712,4294966712
271340847,6465266,6467208,14056,4756,6560,136,423,4294967082,11074,6501,11029,254,409,4294967294,13591,4294963479,9154,112,543,298,4294966718,4294966718,4294966718
271346858,6465608,6467362,14015,4702,6655,74,355,4294967056,11071,6469,10903,260,496,4294967293,13560,4294963466,9158,130,528,300,4294966710,4294966710,4294966710
271352870,6465886,6467681,13980,4707,6757,28,270,4294967019,11092,6546,10911,257,538,4294967294,13563,4294963437,9161,162,511,332,4294966702,4294966702,4294966702
271358848,6465806,6467691,13938,4734,6743,4294967249,151,4294966996,11091,6617,10868,193,558,7,13537,4294963472,9029,216,498,314,4294966717,4294966717,4294966717
271364847,6465611,6467367,13943,4751,6825,4294967220,93,4294966985,11102,6633,11069,130,533,27,13523,4294963418,8890,310,501,320,4294966717,4294966717,4294966717
271370852,6465709,6467109,13968,4848,6643,4294967213,17,4294967019,11136,6614,11216,150,538,51,13560,4294963493,8816,367,580,331,4294966714,4294966714,4294966714
271376843,6465806,6467267,14073,4867,6532,4294967256,4294967268,4294967069,11111,6574,11252,159,529,65,13535,4294963477,8954,512,614,339,4294966720,4294966720,4294966720
271382836,6465758,6467181,14166,4843,6415,4294967257,4294967259,4294967097,11083,6559,11138,74,520,61,13473,4294963472,9128,642,636,322,4294966724,4294966724,4294966724
271388844,6465927,6467608,14181,4769,6304,9,22,4294967135,11144,6633,11156,4294967206,439,30,13434,4294963438,9202,654,624,339,4294966720,4294966720,4294966720
271394859,6466363,6468297,14172,4799,6247,43,154,4294967129,11181,6704,11031,4294967039,339,16,13485,4294963416,9201,594,623,306,4294966714,4294966714,4294966714
271400848,6466269,6468273,14155,4708,6321,51,327,4294967131,11191,6611,11003,4294966952,284,6,13488,4294963475,9211,456,608,288,4294966716,4294966716,4294966716
271406850,6466100,6468041,14086,4690,6464,49,495,4294967110,11125,6583,11008,4294966989,228,4294967265,13526,4294963567,9067,280,590,263,4294966714,4294966714,4294966714
271412843,6466297,6468046,13952,4722,6598,4294967290,596,4294967082,11129,6593,11024,4294967110,201,4294967223,13548,4294963638,9115,148,560,290,4294966722,4294966722,4294966722
271418851,6466286,6468200,13895,4756,6659,4294967261,631,4294967086,11078,6622,11079,4294967202,177,4294967209,13628,4294963622,9074,32,563,294,4294966714,4294966714,4294966714
271424855,6466644,6468604,13802,4748,6663,4294967228,600,4294967107,11016,6594,11134,18,128,4294967202,13618,4294963667,9095,4294967277,481,336,4294966710,4294966710,4294966710
271430863,6466813,6468904,13772,4819,6721,4294967210,523,4294967128,10991,6620,11067,141,125,4294967178,13665,4294963575,9146,4294967284,424,335,4294966708,4294966708,4294966708
271436851,6467173,6469305,13779,4821,6755,4294967236,416,4294967152,10966,6589,11049,192,134,4294967199,13612,4294963569,9159,28,330,332,4294966714,4294966714,4294966714
271442850,6467338,6469463,13729,4790,6734,5,285,4294967185,10931,6630,11025,254,193,4294967229,13640,4294963530,9204,84,292,350,4294966715,4294966715,4294966715
271448845,6467572,6469613,13799,4848,6775,55,175,4294967210,11001,6602,10990,248,287,4294967249,13619,4294963448,9036,138,279,383,4294966719,4294966719,4294966719
271454855,6467335,6469678,13828,4813,6741,103,65,4294967221,11052,6667,10866,204,352,4294967259,13670,4294963480,8976,219,297,393,4294966713,4294966713,4294966713
271460846,6467476,6469885,13884,4862,6737,155,4294967295,4294967230,11057,6675,10907,162,471,18,13686,4294963404,8904,259,345,398,4294966717,4294966717,4294966717
271466851,6467661,6469866,13902,4849,6762,171,4294967244,4294967241,11147,6709,10910,97,561,41,13706,4294963444,8924,237,433,420,4294966713,4294966713,4294966713
271472851,6467721,6469953,14005,4850,6752,208,4294967221,4294967229,11248,6692,10928,2,657,57,13681,4294963408,8876,254,550,396,4294966715,4294966715,4294966715
271478838,6467700,6470353,14010,4864,6768,205,4294967224,4294967228,11164,6708,10952,4294967240,707,88,13707,4294963443,8809,269,653,413,4294966722,4294966722,4294966722
271484844,6467876,6470497,14053,4882,6653,220,4294967293,4294967256,11206,6703,10996,4294967136,722,86,13707,4294963460,8864,272,754,415,4294966723,4294966723,4294966723
271490854,6467866,6470460,14098,4910,6609,251,80,4294967235,11233,6663,10978,4294967094,739,80,13631,4294963477,8768,228,912,436,4294966714,4294966714,4294966714
271496847,6467789,6470648,14112,4925,6535,319,187,4294967274,11175,6677,10995,4294967067,782,112,13687,4294963573,8868,182,1036,455,4294966719,4294966719,4294966719
271502857,6467688,6470341,14085,4860,6554,339,298,4294967269,11119,6649,10909,4294967089,822,99,13667,4294963543,8844,5,1188,506,4294966713,4294966713,4294966713
271508858,6467847,6470437,14069,4853,6606,356,388,4294967266,11104,6627,10915,4294967061,851,112,13597,4294963603,8753,53,1274,502,4294966708,4294966708,4294966708
271514874,6467713,6470412,14028,4830,6611,353,468,4294967257,11088,6551,10965,4294967025,886,89,13607,4294963638,8884,4294967222,1365,514,4294966702,4294966702,4294966702
271520856,6467043,6469811,13977,4845,6633,307,519,4294967218,11030,6615,10963,4294967036,938,72,13574,4294963617,9063,4294967160,1374,512,4294966711,4294966711,4294966711
271526840,6466761,6468970,13927,4814,6683,275,554,4294967225,10976,6547,11089,4294967059,951,64,13546,4294963519,9361,4294967060,1274,494,4294966724,4294966724,4294966724
271532842,6466536,6468615,13838,4848,6617,234,556,4294967170,10974,6496,11121,4294967094,930,23,13515,4294963402,9569,4294967040,1109,445,4294966722,4294966722,4294966722
271538840,6466608,6468826,13837,4815,6676,235,543,4294967180,10906,6426,11222,4294967130,897,14,13482,4294963402,9561,4294967111,843,354,4294966721,4294966721,4294966721
271544840,6466018,6468297,13798,4781,6636,76,549,4294967124,10915,6420,11287,4294967153,857,4294967279,13358,4294963391,9526,4294967174,676,293,4294966722,4294966722,4294966722
271550836,6466291,6468441,13707,4593,6849,4294967266,493,4294967074,10895,6325,11339,4294967186,772,4294967238,13327,4294963436,9477,4294967274,521,246,4294966721,4294966721,4294966721
271556854,6466050,6468142,13773,4766,6697,4294967199,337,4294967037,10899,6339,11285,4294967228,705,4294967233,13319,4294963383,9341,138,439,212,4294966718,4294966718,4294966718
271562825,6465760,6467675,13756,4792,6760,4294967129,227,4294967023,10853,6383,11286,4294967240,634,4294967221,13288,4294963380,9340,301,445,233,4294966730,4294966730,4294966730
271568857,6465429,6467145,13708,4774,6714,4294967073,64,4294967057,10869,6404,11082,4294967230,654,4294967224,13317,4294963387,9330,398,446,252,4294966709,4294966709,4294966709
271574843,6465253,6467051,13801,4863,6713,4294967067,4294967201,4294967111,10855,6551,10906,4294967170,730,4294967256,13400,4294963317,9456,397,441,292,4294966719,4294966719,4294966719
271580855,6464980,6466722,13905,4788,6706,4294967108,4294967085,4294967139,10907,6561,10934,4294967085,780,3,13426,4294963313,9336,383,464,325,4294966713,4294966713,4294966713
271586862,6465255,6466819,13843,4830,6631,4294967114,4294967063,4294967197,10984,6522,11060,4294967042,843,46,13497,4294963258,9149,376,531,335,4294966708,4294966708,4294966708
271592843,6465368,6466825,13948,4856,6589,4294967190,4294967077,4294967254,11009,6467,11246,4294967095,908,62,13494,4294963309,9089,374,636,364,4294966720,4294966720,4294966720
271598845,6465323,6466976,13925,4869,6573,4294967250,4294967076,4294967292,11066,6419,11322,4294967178,964,100,13571,4294963336,9161,371,703,391,4294966719,4294966719,4294966719
271604831,6465361,6466963,13975,4838,6636,23,4294967086,66,11070,6458,11385,4294967222,967,101,13565,4294963273,9317,331,720,418,4294966729,4294966729,4294966729
271610844,6465723,6467281,14003,4831,6640,114,4294967109,93,11090,6496,11428,4294967184,935,90,13452,4294963225,9281,350,711,439,4294966717,4294966717,4294966717
271616848,6465561,6467389,14009,4850,6650,140,4294967183,103,11103,6507,11315,4294967138,916,88,13516,4294963280,9275,395,701,429,4294966717,4294966717,4294966717
271622849,6465392,6467343,13971,4832,6712,169,4294967241,75,11091,6524,11333,4294967050,920,91,13440,4294963301,9230,451,755,417,4294966718,4294966718,4294966718
271628834,6465751,6467677,14002,4773,6713,196,36,22,11102,6488,11282,4294967002,925,56,13438,4294963392,9155,397,809,405,4294966727,4294966727,4294966727
271634863,6465743,6467821,13952,4861,6797,187,78,4294967271,11028,6529,11272,4294966979,957,11,13370,4294963422,9124,286,879,392,4294966709,4294966709,4294966709
271640853,6465640,6467914,13965,4845,6796,118,90,4294967214,10986,6418,11302,4294967025,939,23,13320,4294963412,9200,201,982,391,4294966714,4294966714,4294966714
271646841,6465876,6468272,13993,4779,6821,105,72,4294967152,10967,6461,11212,4294966992,933,14,13291,4294963411,9327,119,1003,378,4294966724,4294966724,4294966724
271652848,6465834,6467949,13942,4787,6702,62,20,4294967090,10875,6326,11299,4294966958,926,4294967283,13264,4294963316,9296,94,990,371,4294966717,4294966717,4294966717
271658843,6466023,6468163,13957,4756,6642,33,8,4294967044,10849,6375,11309,4294966956,856,4294967271,13183,4294963331,9438,6,984,354,4294966722,4294966722,4294966722
271664843,6466189,6468311,13911,4721,6666,4294967284,13,4294967040,10791,6318,11198,4294966967,828,4294967288,13156,4294963263,9433,70,918,296,4294966720,4294966720,4294966720
271670865,6466284,6468121,13819,4735,6709,0,11,4294967010,10752,6255,11239,4294966993,827,4294967273,13141,4294963355,9567,84,851,254,4294966704,4294966704,4294966704
271676841,6465960,6467859,13873,4763,6689,4294967288,49,4294967005,10782,6282,11234,4294966991,836,4294967265,13104,4294963356,9628,80,750,247,4294966720,4294966720,4294966720
271682862,6465848,6467692,13790,4719,6597,3,90,4294967015,10737,6250,11188,4294966993,812,1,13071,4294963347,9562,87,645,188,4294966706,4294966706,4294966706
271688849,6465748,6467384,13771,4722,6573,11,142,4294967024,10709,6272,11197,4294967039,846,4294967279,13117,4294963346,9510,126,563,178,4294966716,4294966716,4294966716
271694854,6466050,6467579,13752,4787,6537,21,158,4294967028,10788,6322,11258,4294967081,880,9,13110,4294963338,9392,150,502,173,4294966717,4294966717,4294966717
271700836,6466177,6467881,13743,4767,6675,5,172,4294967044,10654,6261,11311,4294967127,828,66,13091,4294963318,9297,174,486,171,4294966721,4294966721,4294966721
271706843,6466091,6467730,13718,4799,6647,22,152,4294967051,10655,6195,11399,4294967196,807,64,13155,4294963307,9382,267,490,190,4294966719,4294966719,4294966719
271712844,6465803,6467373,13728,4762,6699,4294967294,142,4294967061,10702,6214,11349,4294967258,787,63,13229,4294963302,9345,319,517,223,4294966719,4294966719,4294966719
271718857,6465686,6467433,13698,4858,6764,4294967284,128,4294967045,10703,6282,11425,55,802,94,13277,4294963248,9332,360,530,228,4294966711,4294966711,4294966711
271724842,6465651,6467355,13723,4857,6636,4294967286,109,4294967066,10721,6278,11377,75,828,117,13261,4294963261,9340,405,557,245,4294966723,4294966723,4294966723
271730852,6465624,6467557,13739,4845,6773,4294967289,89,4294967064,10729,6326,11300,100,881,113,13261,4294963254,9390,386,604,274,4294966715,4294966715,4294966715
271736834,6465697,6467742,13795,4858,6684,7,69,4294967066,10799,6291,11417,105,847,113,13322,4294963281,9382,358,632,278,4294966726,4294966726,4294966726
271742856,6465670,6467705,13740,4842,6728,15,102,4294967084,10809,6269,11397,107,849,91,13344,4294963232,9414,336,673,312,4294966713,4294966713,4294966713
271748845,6465684,6467527,13799,4872,6737,56,153,4294967063,10832,6335,11428,101,818,81,13346,4294963229,9362,314,687,324,4294966718,4294966718,4294966718
271754861,6465681,6467646,13855,4881,6762,44,170,4294967071,10852,6319,11539,112,794,76,13321,4294963290,9389,301,700,324,4294966704,4294966704,4294966704
271760844,6465454,6467680,13837,4958,6771,82,183,4294967060,10819,6347,11588,85,764,64,13336,4294963335,9479,237,709,347,4294966722,4294966722,4294966722
271766843,6465776,6468012,13862,4969,6846,78,201,4294967061,10826,6372,11618,61,740,48,13309,4294963311,9332,188,707,354,4294966719,4294966719,4294966719
271772836,6466304,6468491,13783,4936,6921,85,199,4294967052,10825,6384,11590,23,715,31,13230,4294963328,9451,170,707,384,4294966725,4294966725,4294966725
271778846,6466412,6468552,13869,4981,6914,111,198,4294967040,10829,6362,11578,4294967275,696,42,13241,4294963350,9378,144,718,381,4294966718,4294966718,4294966718
271784856,6466449,6468511,13898,5004,6878,138,167,4294967052,10772,6353,11674,4294967267,751,52,13222,4294963308,9387,115,722,382,4294966711,4294966711,4294966711
271790850,6466486,6468374,13913,5039,6820,99,171,4294967017,10749,6386,11628,4294967253,724,61,13175,4294963310,9455,101,711,369,4294966717,4294966717,4294966717
271796869,6466249,6468265,13919,4964,6861,75,140,4294967026,10720,6306,11564,4294967260,760,44,13170,4294963295,9420,96,686,338,4294966703,4294966703,4294966703
271802843,6465852,6467822,13866,5015,6912,92,125,4294967015,10754,6317,11587,4294967284,806,38,13177,4294963338,9509,102,674,310,4294966721,4294966721,4294966721
271808840,6465897,6467714,13843,4943,6861,80,149,4294967024,10806,6334,11598,38,888,13,13174,4294963303,9462,97,631,301,4294966719,4294966719,4294966719
271814839,6465893,6467640,13880,4922,6797,23,75,4294967024,10696,6285,11605,64,919,26,13189,4294963309,9445,122,587,299,4294966725,4294966725,4294966725
271820866,6465783,6467335,13847,4902,6817,22,90,4294967020,10662,6351,11615,80,944,6,13161,4294963329,9449,100,586,268,4294966706,4294966706,4294966706
271826858,6465807,6467222,13802,4941,6819,38,78,4294967042,10703,6318,11639,102,921,17,13153,4294963282,9618,98,556,279,4294966711,4294966711,4294966711
271832838,6465867,6467303,13766,4881,6742,45,110,4294967053,10696,6297,11648,85,914,14,13150,4294963269,9538,89,522,240,4294966723,4294966723,4294966723
271838843,6465716,6467352,13865,4810,6802,146,166,4294967123,10673,6317,11730,56,916,4294967275,13123,4294963261,9520,106,521,226,4294966722,4294966722,4294966722
271844834,6465605,6467210,13832,4966,6767,93,269,4294967049,10610,6300,11676,41,854,4294967288,13162,4294963279,9494,136,497,213,4294966726,4294966726,4294966726
271850837,6465750,6467202,13710,4960,6813,57,144,4294967020,10589,6237,11636,50,784,4294967293,13169,4294963295,9627,162,562,205,4294966720,4294966720,4294966720
271856837,6465792,6467662,13625,4981,6823,34,133,4294967054,10535,6283,11637,20,711,4294967293,13193,4294963253,9591,187,537,179,4294966726,4294966726,4294966726
271862853,6465360,6468067,13635,4957,6776,23,171,4294967057,10557,6242,11617,4294967274,678,4294967278,13150,4294963211,9669,168,501,193,4294966714,4294966714,4294966714
271868846,6466017,6468466,13691,4955,6767,33,176,4294967060,10593,6239,11659,27,660,4294967290,13134,4294963241,9568,209,440,195,4294966721,4294966721,4294966721
271874840,6467574,6469977,13732,4965,6765,92,156,4294967044,10585,6203,11651,43,646,4294967254,13093,4294963221,9596,198,423,174,4294966722,4294966722,4294966722
271880854,6469728,6471575,13682,4905,6797,116,153,4294967073,10555,6243,11694,64,630,4294967248,13156,4294963232,9643,235,386,160,4294966711,4294966711,4294966711
271886859,6471802,6475110,13715,4967,6779,95,173,4294967044,10515,6244,11595,56,591,4294967240,13108,4294963226,9557,287,364,177,4294966709,4294966709,4294966709
271892852,6469184,6473084,13687,4899,6811,99,214,4294967057,10573,6245,11600,54,606,4294967219,13089,4294963210,9651,319,320,151,4294966716,4294966716,4294966716
271898844,6465266,6466299,13623,4944,6939,92,225,4294967049,10558,6240,11495,110,608,4294967208,13068,4294963247,9561,347,315,155,4294966718,4294966718,4294966718
271904866,6463257,6462320,13631,4924,6934,68,243,4294967037,10634,6212,11508,142,619,4294967229,13117,4294963239,9567,378,319,165,4294966704,4294966704,4294966704
271910838,6461776,6463169,13674,4991,6865,43,245,4294967064,10614,6249,11654,165,608,4294967240,13120,4294963238,9616,401,306,191,4294966724,4294966724,4294966724
271916840,6462223,6465069,13719,4982,6802,64,203,4294967067,10598,6233,11757,216,615,4294967268,13051,4294963270,9507,410,318,174,4294966722,4294966722,4294966722
271922840,6463414,6465605,13757,4959,6847,51,152,4294967092,10612,6297,11631,280,620,4294967260,13117,4294963307,9522,398,311,191,4294966721,4294966721,4294966721
271928834,6464652,6466890,13747,4956,6799,48,96,4294967075,10653,6280,11583,259,576,4294967233,13091,4294963339,9522,298,272,204,4294966725,4294966725,4294966725
271934853,6464990,6467433,13865,4937,6739,27,107,4294967089,10628,6338,11691,227,508,4294967212,13074,4294963298,9587,240,231,187,4294966716,4294966716,4294966716
271940845,6465086,6467358,13885,4964,6713,4294967290,128,4294967050,10570,6282,11701,240,498,4294967186,13053,4294963244,9521,233,200,193,4294966722,4294966722,4294966722
271946858,6465531,6467671,13833,4974,6816,4294967283,152,4294967032,10584,6325,11594,237,546,4294967182,13117,4294963283,9541,244,193,161,4294966712,4294966712,4294966712
271952844,6465978,6468026,13814,4985,6885,4294967280,215,4294967005,10595,6329,11510,233,564,4294967194,13146,4294963339,9562,220,163,148,4294966717,4294966717,4294966717
271958853,6465883,6467757,13723,4952,6974,4294967240,245,4294966993,10618,6291,11591,223,512,4294967203,13115,4294963318,9570,169,106,137,4294966714,4294966714,4294966714
271964838,6466090,6468031,13621,4927,7088,4294967197,245,4294966988,10577,6285,11714,194,490,4294967191,13110,4294963242,9491,189,84,114,4294966724,4294966724,4294966724
271970842,6466298,6467880,13539,4973,7109,4294967185,266,4294966963,10613,6286,11826,203,471,4294967184,13118,4294963240,9419,258,80,96,4294966720,4294966720,4294966720
271976864,6466496,6468396,13537,5032,7118,4294967191,245,4294966958,10572,6256,11997,273,396,4294967203,13147,4294963259,9324,367,83,117,4294966705,4294966705,4294966705
271982854,6466503,6468433,13610,5029,7054,4294967186,136,4294967031,10532,6176,11940,298,325,4294967228,13083,4294963285,9375,493,136,121,4294966714,4294966714,4294966714
271988855,6466559,6468423,13719,5012,6925,4294967214,39,4294967043,10532,6235,11901,258,283,4294967214,13040,4294963262,9582,564,188,91,4294966713,4294966713,4294966713
271994841,6466698,6468569,13758,5024,6801,4294967221,4294967247,4294967062,10530,6234,11779,170,211,4294967196,13028,4294963285,9690,538,176,126,4294966723,4294966723,4294966723
272000843,6466618,6468885,13819,4977,6745,4294967245,4294967231,4294967084,10611,6288,11598,58,166,4294967184,13049,4294963239,9666,478,155,113,4294966719,4294966719,4294966719
272006862,6467034,6469314,13839,4944,6694,4294967273,4294967287,4294967078,10583,6363,11451,4294967260,174,4294967138,13047,4294963226,9596,419,139,76,4294966709,4294966709,4294966709
272012869,6467245,6469608,13848,4930,6679,0,68,4294967049,10602,6313,11436,4294967232,163,4294967094,13049,4294963278,9625,294,130,67,4294966702,4294966702,4294966702
272018831,6466925,6469585,13818,4864,6706,4294967287,151,4294966990,10572,6210,11511,4294967233,152,4294967095,13050,4294963324,9573,160,132,54,4294966729,4294966729,4294966729
272024853,6466987,6469485,13711,4915,6823,4294967255,271,4294966955,10532,6216,11543,4294967293,157,4294967042,13131,4294963257,9584,84,95,44,4294966712,4294966712,4294966712
272030844,6467060,6469402,13678,4940,6771,4294967239,405,4294966904,10525,6181,11578,121,144,4294967035,13144,4294963286,9509,46,20,22,4294966719,4294966719,4294966719
272036839,6467195,6469724,13649,4929,6784,4294967180,566,4294966858,10518,6273,11647,292,110,4294967023,13132,4294963246,9548,29,4294967190,14,4294966724,4294966724,4294966724
272042856,6467103,6469647,13589,4983,6818,4294967192,691,4294966844,10483,6305,11597,432,90,4294967020,13153,4294963307,9606,9,4294967095,5,4294966711,4294966711,4294966711
272048863,6467534,6469948,13542,5058,6921,4294967192,747,4294966864,10537,6301,11615,569,59,4294967045,13211,4294963320,9546,59,4294966998,4294967293,4294966712,4294966712,4294966712
272054861,6467773,6470479,13500,5048,7038,4294967195,683,4294966879,10523,6345,11536,620,103,4294967058,13154,4294963324,9489,128,4294966966,16,4294966708,4294966708,4294966708
272060854,6467690,6470642,13526,5112,7044,4294967213,547,4294966916,10600,6377,11471,621,182,4294967096,13190,4294963274,9392,225,4294966965,22,4294966712,4294966712,4294966712
272066849,6467625,6470353,13529,5169,7134,4294967258,359,4294966944,10589,6361,11514,580,273,4294967142,13261,4294963239,9344,293,4294966975,30,4294966717,4294966717,4294966717
272072851,6467878,6470791,13541,5153,7198,10,159,4294966974,10691,6406,11542,554,368,4294967158,13339,4294963221,9400,336,4294967008,59,4294966714,4294966714,4294966714
272078850,6467926,6471150,13652,5144,7190,27,4294967274,4294967031,10747,6450,11582,525,421,4294967177,13338,4294963197,9439,370,4294967067,33,4294966719,4294966719,4294966719
272084857,6467953,6471018,13684,5118,7161,38,4294967156,4294967061,10783,6424,11546,460,466,4294967191,13339,4294963223,9475,390,4294967100,46,4294966714,4294966714,4294966714
272090853,6468101,6471119,13632,5098,7022,54,4294967070,4294967063,10776,6428,11553,352,445,4294967216,13375,4294963143,9469,386,4294967129,44,4294966713,4294966713,4294966713
272096851,6467935,6471173,13623,5079,7025,44,4294967045,4294967067,10802,6391,11647,247,377,4294967215,13320,4294963173,9481,399,4294967146,49,4294966711,4294966711,4294966711
272102844,6467693,6470969,13682,5096,6986,15,4294967066,4294967066,10817,6338,11661,161,352,4294967194,13307,4294963154,9525,463,4294967213,43,4294966720,4294966720,4294966720
272108843,6467775,6470846,13780,5077,6925,16,4294967147,4294967071,10829,6372,11630,86,332,4294967207,13296,4294963221,9455,481,4294967249,21,4294966720,4294966720,4294966720
272114860,6467767,6470883,13656,5046,6881,4294967284,4294967231,4294967043,10723,6359,11631,35,326,4294967208,13274,4294963227,9407,508,52,48,4294966712,4294966712,4294966712
272120838,6467146,6470241,13760,5014,6967,4294967272,4294967290,4294967004,10717,6317,11652,61,366,4294967214,13212,4294963247,9343,503,156,55,4294966722,4294966722,4294966722
272126850,6467010,6470053,13762,5092,6937,4294967269,57,4294966986,10664,6333,11565,46,388,4294967215,13210,4294963290,9361,521,205,64,4294966716,4294966716,4294966716
272132846,6467060,6470029,13690,5071,6980,4294967283,151,4294966947,10668,6320,11621,56,405,4294967207,13176,4294963348,9417,514,257,85,4294966719,4294966719,4294966719
272138856,6466918,6469951,13662,5057,6957,4294967257,193,4294966922,10618,6347,11552,118,405,4294967197,13214,4294963311,9333,453,266,76,4294966713,4294966713,4294966713
272144848,6466463,6469390,13680,5063,7026,4294967210,270,4294966868,10619,6363,11604,159,427,4294967217,13225,4294963339,9372,456,286,75,4294966715,4294966715,4294966715
272150843,6466255,6468785,13629,5105,6987,4294967211,320,4294966865,10548,6274,11584,212,414,4294967185,13147,4294963327,9290,449,260,83,4294966718,4294966718,4294966718
272156852,6465994,6468570,13641,5105,6931,4294967205,361,4294966843,10547,6343,11641,275,407,4294967193,13202,4294963372,9344,443,245,103,4294966713,4294966713,4294966713
272162847,6465427,6467818,13595,5129,6970,4294967194,375,4294966839,10485,6344,11660,336,391,4294967183,13208,4294963363,9398,411,231,75,4294966716,4294966716,4294966716
272168849,6465398,6467661,13571,5095,7020,4294967202,356,4294966844,10522,6368,11614,416,367,4294967197,13165,4294963399,9409,407,189,57,4294966714,4294966714,4294966714
272174851,6464911,6467166,13534,5125,7057,4294967216,328,4294966871,10547,6320,11610,453,339,4294967205,13173,4294963391,9497,383,165,47,4294966717,4294966717,4294966717
272180847,6465085,6467401,13536,5152,7117,4294967252,287,4294966871,10517,6388,11546,476,348,4294967193,13232,4294963388,9521,365,128,43,4294966717,4294966717,4294966717
272186843,6465222,6467358,13491,5048,7075,4294967281,257,4294966880,10530,6473,11435,430,341,4294967209,13215,4294963390,9603,333,73,60,4294966720,4294966720,4294966720
272192843,6465064,6467318,13499,5148,7009,4294967275,201,4294966915,10480,6461,11461,359,381,4294967248,13181,4294963416,9581,310,4294967287,55,4294966720,4294966720,4294966720
272198839,6464578,6466959,13473,5154,7049,4294967266,128,4294966908,10552,6388,11564,305,352,4294967283,13188,4294963399,9465,336,4294967279,56,4294966722,4294966722,4294966722
272204853,6464762,6467333,13444,5177,7022,4294967267,90,4294966916,10495,6372,11780,335,391,17,13291,4294963441,9309,364,31,58,4294966712,4294966712,4294966712
272210842,6465419,6467687,13487,5221,6977,4294967260,41,4294966941,10592,6329,11862,418,374,19,13250,4294963475,9268,377,71,91,4294966720,4294966720,4294966720
272216868,6465202,6467737,13552,5230,6995,4294967282,8,4294966962,10550,6400,11886,497,308,6,13260,4294963429,9508,390,76,144,4294966705,4294966705,4294966705
272222866,6464989,6467471,13581,5238,7055,4294967274,4294967253,4294967003,10539,6452,11782,507,271,11,13290,4294963364,9564,375,34,168,4294966705,4294966705,4294966705
272228840,6465019,6467399,13555,5182,6993,4294967286,4294967213,4294967059,10552,6506,11769,388,212,4294967278,13310,4294963400,9567,418,19,151,4294966722,4294966722,4294966722
272234831,6464910,6467500,13656,5289,7078,4294967293,4294967217,4294967081,10553,6510,11669,256,193,4294967248,13293,4294963421,9388,492,28,139,4294966729,4294966729,4294966729
272240833,6465020,6467714,13658,5201,6986,33,4294967248,4294967085,10611,6506,11726,176,152,4294967240,13337,4294963460,9281,538,84,128,4294966726,4294966726,4294966726
272246850,6465057,6467720,13680,5144,7013,49,4294967284,4294967080,10640,6520,11613,173,135,4294967216,13355,4294963506,9413,493,121,133,4294966716,4294966716,4294966716
272252852,6465073,6467845,13704,5138,7013,46,40,4294967069,10620,6470,11723,215,153,4294967201,13256,4294963511,9413,428,151,185,4294966715,4294966715,4294966715
272258850,6465573,6468499,13685,5102,7074,12,96,4294967054,10597,6458,11697,263,143,4294967227,13273,4294963406,9393,355,180,171,4294966717,4294966717,4294966717
272264858,6465601,6468413,13677,5057,7146,4294967274,113,4294967023,10592,6426,11673,292,158,4294967206,13295,4294963396,9436,283,143,188,4294966708,4294966708,4294966708
272270846,6465518,6468403,13640,5092,7109,4294967215,159,4294967008,10605,6453,11717,316,143,4294967211,13257,4294963400,9541,275,102,182,4294966719,4294966719,4294966719
272276837,6465180,6467943,13586,5086,7150,4294967143,122,4294967004,10594,6420,11602,323,135,4294967214,13260,4294963381,9421,289,56,180,4294966725,4294966725,4294966725
272282850,6465157,6467849,13632,5140,7118,4294967130,126,4294966993,10598,6395,11611,297,134,4294967221,13258,4294963351,9478,325,29,160,4294966713,4294966713,4294966713
272288835,6465320,6467934,13573,5151,7137,4294967099,73,4294967011,10526,6410,11594,309,138,4294967233,13295,4294963398,9410,360,13,163,4294966724,4294966724,4294966724
272294848,6465539,6468356,13573,5172,7180,4294967119,8,4294967044,10530,6451,11595,287,156,4294967241,13257,4294963463,9376,378,4294967284,159,4294966715,4294966715,4294966715
272300837,6465521,6468356,13541,5199,7155,4294967130,4294967208,4294967100,10583,6452,11592,295,195,4294967260,13269,4294963440,9366,386,4294967259,160,4294966724,4294966724,4294966724
272306836,6465320,6468117,13560,5223,7155,4294967171,4294967128,4294967144,10559,6472,11595,271,206,4294967271,13307,4294963463,9353,388,4294967261,141,4294966726,4294966726,4294966726
272312834,6465512,6468258,13556,5217,7135,4294967171,4294967089,4294967161,10597,6497,11563,315,244,4294967286,13349,4294963461,9301,392,4294967252,156,4294966724,4294966724,4294966724
272318843,6465567,6468505,13558,5295,7059,4294967192,4294967067,4294967182,10534,6521,11584,304,284,4294967275,13287,4294963366,9291,386,4294967217,160,4294966717,4294966717,4294966717
272324850,6465635,6468485,13549,5237,7054,4294967198,4294967116,4294967185,10608,6500,11641,337,317,10,13308,4294963392,9379,439,4294967220,199,4294966715,4294966715,4294966715
272330851,6465740,6468564,13580,5225,7030,4294967206,4294967161,4294967187,10589,6482,11680,345,295,35,13346,4294963415,9405,471,4294967230,180,4294966716,4294966716,4294966716
272336864,6465886,6468837,13565,5231,7013,4294967188,4294967225,4294967184,10583,6514,11645,304,296,24,13343,4294963396,9360,457,4294967248,194,4294966706,4294966706,4294966706
272342837,6465591,6468607,13581,5259,6959,4294967195,4294967280,4294967188,10567,6457,11594,286,311,25,13349,4294963426,9370,466,4294967280,197,4294966724,4294966724,4294966724
272348856,6465653,6468853,13629,5255,7005,4294967195,9,4294967184,10556,6497,11601,262,301,27,13346,4294963421,9387,416,60,183,4294966714,4294966714,4294966714
272354825,6465634,6468930,13592,5231,7062,4294967187,8,4294967186,10582,6493,11570,194,290,47,13347,4294963465,9371,402,98,170,4294966731,4294966731,4294966731
272360852,6465657,6468892,13566,5197,6944,4294967220,4294967287,4294967184,10565,6442,11614,189,273,22,13324,4294963424,9312,374,173,187,4294966713,4294966713,4294966713
272366861,6465603,6468533,13579,5219,7024,4294967241,4294967265,4294967181,10505,6463,11683,193,279,4294967290,13282,4294963426,9324,343,214,199,4294966708,4294966708,4294966708
272372849,6465929,6468970,13567,5174,7003,4294967212,4294967238,4294967179,10596,6476,11581,244,265,4294967276,13260,4294963495,9389,303,254,172,4294966714,4294966714,4294966714
272378860,6465972,6469143,13528,5183,7050,4294967211,4294967222,4294967176,10593,6396,11583,249,256,4294967281,13305,4294963477,9345,253,280,178,4294966710,4294966710,4294966710
272384856,6465923,6468917,13598,5154,7060,4294967203,4294967223,4294967142,10542,6476,11547,260,210,4294967262,13253,4294963448,9354,262,304,176,4294966716,4294966716,4294966716
272390841,6465864,6468882,13496,5185,7092,4294967166,4294967203,4294967188,10574,6422,11565,254,190,4294967256,13202,4294963482,9402,313,294,182,4294966724,4294966724,4294966724
272396863,6465998,6468865,13501,5230,7081,4294967167,4294967214,4294967202,10544,6439,11515,198,194,4294967262,13251,4294963425,9286,299,286,194,4294966708,4294966708,4294966708
272402844,6465956,6468774,13528,5209,7089,4294967152,4294967183,4294967192,10585,6442,11496,177,206,4294967262,13256,4294963439,9327,322,268,206,4294966717,4294966717,4294966717
272408855,6466025,6468691,13569,5201,7036,4294967138,4294967185,4294967194,10597,6467,11562,181,216,4294967271,13296,4294963462,9196,358,233,182,4294966711,4294966711,4294966711
272414847,6465754,6468513,13536,5215,7055,4294967142,4294967175,4294967180,10529,6483,11519,171,217,4294967256,13259,4294963468,9333,316,232,174,4294966718,4294966718,4294966718
272420856,6465599,6468200,13557,5185,7089,4294967144,4294967174,4294967180,10564,6449,11578,207,212,4294967264,13271,4294963409,9339,285,211,182,4294966713,4294966713,4294966713
272426850,6465851,6468410,13589,5223,7053,4294967136,4294967207,4294967148,10592,6485,11572,233,225,4294967294,13275,4294963494,9365,240,191,202,4294966719,4294966719,4294966719
272432841,6465869,6468406,13538,5169,7001,4294967156,4294967206,4294967152,10561,6456,11537,240,211,15,13303,4294963454,9402,233,186,186,4294966720,4294966720,4294966720
272438855,6465417,6468078,13522,5177,7012,4294967136,4294967213,4294967146,10613,6480,11561,278,180,43,13343,4294963415,9418,200,178,227,4294966714,4294966714,4294966714
272444845,6465251,6467784,13563,5171,7095,4294967151,4294967223,4294967133,10578,6471,11560,251,185,52,13309,4294963387,9444,198,179,170,4294966716,4294966716,4294966716
272450848,6465734,6468284,13601,5146,7085,4294967140,4294967259,4294967116,10659,6464,11673,236,224,62,13258,4294963369,9346,208,176,185,4294966715,4294966715,4294966715
272456848,6465714,6468352,13592,5240,7039,4294967149,4294967227,4294967103,10634,6474,11598,248,226,90,13273,4294963362,9324,230,156,189,4294966717,4294966717,4294966717
272462836,6465616,6468179,13607,5224,7150,4294967120,4294967219,4294967107,10589,6446,11620,265,197,77,13316,4294963413,9393,240,186,208,4294966725,4294966725,4294966725
272468854,6465768,6468353,13581,5252,6974,4294967124,4294967213,4294967110,10587,6496,11608,239,178,47,13306,4294963357,9408,280,190,204,4294966713,4294966713,4294966713
272474838,6465556,6468705,13572,5224,6991,4294967125,4294967215,4294967089,10558,6473,11618,225,190,38,13328,4294963410,9412,308,210,233,4294966725,4294966725,4294966725
272480851,6465353,6469217,13570,5245,7048,4294967127,4294967201,4294967112,10612,6514,11600,201,196,32,13330,4294963416,9365,301,221,249,4294966713,4294966713,4294966713
272486848,6466295,6469576,13581,5236,7082,4294967118,4294967187,4294967109,10609,6535,11611,188,175,59,13314,4294963398,9359,316,213,237,4294966720,4294966720,4294966720
272492862,6468125,6470991,13595,5222,7131,4294967103,4294967187,4294967099,10569,6491,11589,200,171,26,13370,4294963385,9364,295,228,267,4294966710,4294966710,4294966710
272498845,6470852,6472882,13631,5257,7021,4294967111,4294967179,4294967123,10531,6472,11623,200,186,36,13365,4294963421,9445,288,225,262,4294966717,4294966717,4294966717
272504848,6472193,6475850,13670,5207,7124,4294967097,4294967205,4294967106,10569,6485,11600,179,186,17,13359,4294963377,9457,280,248,263,4294966717,4294966717,4294966717
272510849,6470516,6474651,13565,5198,7051,4294967099,4294967236,4294967118,10610,6492,11456,212,202,20,13328,4294963403,9356,279,251,263,4294966718,4294966718,4294966718
272516850,6465975,6468394,13567,5158,7083,4294967123,4294967235,4294967125,10497,6470,11488,204,255,12,13354,4294963329,9368,309,211,265,4294966716,4294966716,4294966716
272522833,6461851,6463181,13505,5221,7207,4294967129,4294967253,4294967144,10583,6459,11603,184,287,20,13399,4294963387,9394,353,201,241,4294966728,4294966728,4294966728
272528836,6461079,6463993,13510,5235,7129,4294967123,4294967259,4294967141,10629,6434,11628,176,325,38,13409,4294963415,9240,366,197,239,4294966725,4294966725,4294966725
272534845,6462023,6465390,13584,5227,7097,4294967143,4294967258,4294967167,10598,6429,11661,255,327,9,13398,4294963434,9276,410,196,227,4294966716,4294966716,4294966716
272540842,6463352,6466670,13574,5203,7091,4294967145,4294967222,4294967200,10673,6465,11403,318,312,2,13398,4294963464,9391,365,238,209,4294966720,4294966720,4294966720
272546843,6464562,6467801,13591,5204,7137,4294967128,4294967214,4294967187,10633,6445,11525,292,226,4294967252,13341,4294963436,9462,311,214,205,4294966722,4294966722,4294966722
272552853,6465080,6468192,13644,5219,6978,4294967151,4294967196,4294967185,10578,6482,11701,274,145,4294967245,13327,4294963427,9457,306,223,185,4294966712,4294966712,4294966712
272558847,6465176,6468188,13708,5164,6936,4294967159,4294967206,4294967195,10574,6459,11656,260,197,4294967211,13332,4294963388,9295,354,214,149,4294966718,4294966718,4294966718
272564847,6465575,6468288,13590,5114,7011,4294967194,4294967200,4294967185,10538,6502,11444,264,248,4294967230,13385,4294963408,9275,374,246,137,4294966718,4294966718,4294966718
272570839,6465608,6468111,13553,5126,7033,4294967214,4294967241,4294967153,10613,6475,11386,252,283,4294967234,13362,4294963490,9359,298,219,106,4294966721,4294966721,4294966721
272576843,6465396,6468189,13481,5138,7208,4294967180,4294967290,4294967160,10577,6426,11560,230,232,4294967244,13358,4294963406,9347,226,217,113,4294966720,4294966720,4294966720
272582857,6465363,6468295,13389,5139,7222,4294967148,39,4294967129,10627,6475,11574,180,259,4294967269,13346,4294963410,9277,227,214,156,4294966710,4294966710,4294966710
272588864,6465829,6468541,13319,5169,7348,4294967121,75,4294967109,10586,6418,11747,245,229,4294967282,13310,4294963402,9188,229,252,167,4294966705,4294966705,4294966705
272594834,6465724,6468377,13362,5179,7240,4294967087,61,4294967139,10567,6413,11875,369,171,4294967295,13358,4294963401,9282,272,235,181,4294966727,4294966727,4294966727
272600842,6465790,6468601,13463,5224,7313,4294967096,4294967264,4294967179,10533,6360,11885,456,120,26,13280,4294963331,9383,455,208,201,4294966721,4294966721,4294966721
272606838,6466141,6468943,13520,5221,7171,4294967097,4294967145,4294967217,10587,6432,11743,414,75,5,13218,4294963317,9522,610,189,215,4294966725,4294966725,4294966725
272612859,6466598,6469608,13613,5236,7155,4294967123,4294967040,4294967244,10598,6426,11607,325,56,10,13214,4294963359,9532,646,160,215,4294966714,4294966714,4294966714
272618845,6466869,6470001,13678,5254,7039,4294967130,4294966961,4294967255,10632,6404,11351,195,67,4294967293,13202,4294963442,9466,701,136,202,4294966716,4294966716,4294966716
272624847,6466941,6469925,13689,5201,7031,4294967126,4294966975,4294967229,10699,6477,11351,115,89,4294967277,13154,4294963382,9397,604,147,199,4294966720,4294966720,4294966720
272630840,6466790,6469720,13759,5225,6986,4294967139,4294967059,4294967206,10668,6514,11395,43,110,4294967237,13238,4294963433,9369,521,200,202,4294966722,4294966722,4294966722
272636845,6466711,6469768,13652,5157,6949,4294967130,4294967161,4294967185,10666,6478,11418,4294967289,98,4294967193,13234,4294963418,9373,351,225,227,4294966721,4294966721,4294966721
272642840,6466891,6469914,13587,5097,6948,4294967110,13,4294967141,10615,6399,11635,6,95,4294967153,13218,4294963407,9446,287,188,211,4294966721,4294966721,4294966721
272648848,6466866,6470013,13527,5123,6975,4294967103,155,4294967065,10629,6397,11696,114,65,4294967155,13252,4294963406,9379,225,86,215,4294966717,4294966717,4294966717
272654843,6466819,6470069,13479,5136,6951,4294967036,339,4294967078,10490,6398,11698,246,16,4294967154,13314,4294963376,9510,144,4294967282,192,4294966719,4294966719,4294966719
272660856,6466878,6470052,13438,5130,7027,4294967023,467,4294967069,10488,6454,11603,350,4294967202,4294967186,13247,4294963380,9443,91,4294967201,180,4294966713,4294966713,4294966713
272666860,6467096,6470373,13421,5227,7028,4294967023,537,4294967077,10481,6425,11551,448,4294967182,4294967207,13323,4294963401,9329,146,4294967145,170,4294966709,4294966709,4294966709
272672847,6467760,6470952,13357,5230,7111,4294967053,472,4294967131,10506,6437,11419,463,4294967194,4294967234,13328,4294963486,9320,261,4294967155,215,4294966719,4294966719,4294966719
272678840,6467689,6471160,13380,5169,7274,4294967083,352,4294967161,10549,6468,11410,444,4294967232,4294967265,13377,4294963459,9325,364,4294967199,237,4294966724,4294966724,4294966724
272684854,6467565,6471119,13381,5187,7327,4294967128,170,4294967187,10640,6490,11390,388,34,4294967276,13414,4294963355,9210,415,4294967219,252,4294966711,4294966711,4294966711
272690837,6467876,6471361,13412,5226,7339,4294967177,4294967241,4294967231,10633,6508,11439,322,109,17,13419,4294963356,9138,410,4294967289,273,4294966726,4294966726,4294966726
272696852,6467784,6471401,13441,5193,7464,4294967177,4294967099,4294967272,10714,6552,11447,266,133,13,13454,4294963342,9249,365,76,271,4294966711,4294966711,4294966711
272702841,6467797,6471430,13506,5196,7321,4294967192,4294966951,3,10724,6507,11503,260,193,31,13517,4294963280,9378,376,67,246,4294966723,4294966723,4294966723
272708859,6468164,6471783,13602,5210,7271,4294967192,4294966896,9,10741,6488,11629,234,224,37,13516,4294963248,9345,403,89,239,4294966710,4294966710,4294966710
272714849,6468365,6472260,13581,5193,7298,4294967217,4294966859,26,10765,6520,11567,159,195,35,13447,4294963256,9325,426,124,215,4294966719,4294966719,4294966719
272720872,6468197,6472041,13610,5156,7211,4294967214,4294966894,32,10796,6434,11595,164,185,32,13392,4294963303,9235,428,182,237,4294966701,4294966701,4294966701
272726851,6468281,6471929,13627,5188,7152,4294967245,4294966951,4294967281,10751,6461,11470,139,221,26,13437,4294963280,9310,441,230,216,4294966714,4294966714,4294966714
272732834,6468063,6471675,13593,5200,7128,4294967268,4294967028,1,10781,6444,11552,159,264,26,13418,4294963320,9289,426,320,203,4294966727,4294966727,4294966727
272738846,6468024,6472156,13561,5187,7226,4294967251,4294967141,4294967257,10670,6499,11564,141,273,13,13411,4294963334,9292,383,380,228,4294966716,4294966716,4294966716
272744856,6467691,6471455,13545,5244,7113,4294967244,4294967199,4294967231,10704,6467,11513,148,294,1,13393,4294963372,9249,349,439,251,4294966709,4294966709,4294966709
272750843,6467575,6471077,13471,5221,7131,4294967187,4294967254,4294967211,10661,6472,11541,102,295,4294967280,13374,4294963344,9267,336,475,277,4294966720,4294966720,4294966720
272756855,6467115,6470635,13508,5214,7071,4294967160,4294967294,4294967189,10634,6453,11552,97,296,4294967275,13333,4294963460,9302,328,495,261,4294966710,4294966710,4294966710
272762838,6466737,6470219,13451,5230,7195,4294967117,41,4294967179,10616,6451,11565,147,286,4294967261,13322,4294963384,9279,321,491,254,4294966723,4294966723,4294966723
272768854,6466905,6470238,13462,5216,7133,4294967083,71,4294967156,10599,6415,11489,160,276,4294967267,13330,4294963438,9334,296,468,257,4294966714,4294966714,4294966714
272774845,6466632,6470041,13441,5209,7119,4294967071,65,4294967159,10652,6385,11505,204,271,4294967260,13328,4294963412,9395,253,435,255,4294966716,4294966716,4294966716
272780837,6466322,6469768,13426,5218,7142,4294967078,51,4294967145,10566,6422,11576,263,277,4294967231,13262,4294963400,9361,206,384,268,4294966726,4294966726,4294966726
272786865,6466413,6469720,13455,5211,7232,4294967109,55,4294967129,10551,6410,11610,349,267,4294967271,13256,4294963354,9363,224,345,224,4294966705,4294966705,4294966705
272792839,6466552,6469701,13452,5197,7214,4294967131,20,4294967151,10555,6411,11505,388,265,4294967277,13290,4294963385,9460,222,292,192,4294966724,4294966724,4294966724
272798841,6466172,6469337,13489,5231,7168,4294967142,8,4294967168,10590,6429,11573,384,289,4294967263,13249,4294963348,9426,242,236,210,4294966724,4294966724,4294966724
272804841,6466177,6469334,13436,5187,7205,4294967174,4294967266,4294967171,10559,6518,11440,354,285,11,13287,4294963314,9551,247,167,180,4294966721,4294966721,4294966721
272810852,6466389,6469518,13458,5190,7250,4294967229,4294967207,4294967207,10634,6511,11308,229,286,36,13248,4294963307,9581,239,98,203,4294966713,4294966713,4294966713
272816846,6466394,6469754,13445,5181,7251,4294967210,4294967200,4294967208,10624,6444,11397,113,348,33,13272,4294963366,9261,231,97,191,4294966715,4294966715,4294966715
272822853,6465954,6469236,13440,5179,7235,4294967214,4294967182,4294967231,10643,6367,11533,132,384,61,13348,4294963394,9228,283,135,185,4294966712,4294966712,4294966712
272828849,6466118,6469335,13419,5184,7229,4294967210,4294967134,4294967239,10606,6364,11731,200,368,51,13293,4294963386,9117,344,192,194,4294966715,4294966715,4294966715
272834845,6466273,6469499,13507,5143,7210,4294967207,4294967126,4294967260,10612,6358,11755,253,334,30,13328,4294963356,9476,332,178,212,4294966720,4294966720,4294966720
272840838,6465972,6469334,13531,5157,7222,4294967190,4294967051,4294967282,10561,6524,11714,323,288,39,13332,4294963291,9568,358,143,213,4294966724,4294966724,4294966724
272846851,6465906,6469198,13529,5175,7132,4294967203,4294967005,13,10579,6523,11563,302,281,27,13264,4294963280,9442,371,134,223,4294966714,4294966714,4294966714
272852851,6465808,6469068,13552,5145,7100,4294967181,4294967010,9,10607,6438,11499,200,255,26,13355,4294963331,9385,447,208,188,4294966715,4294966715,4294966715
272858852,6465733,6469186,13540,5152,7094,4294967221,4294967068,1,10607,6433,11521,122,249,4294967291,13316,4294963332,9306,477,287,186,4294966715,4294966715,4294966715
