t_us,ads_ch1,ads_ch2,ax0,ay0,az0,gx0,gy0,gz0,ax1,ay1,az1,gx1,gy1,gz1,ax2,ay2,az2,gx2,gy2,gz2,dt0_us,dt1_us,dt2_us
593816847,6465447,6479582,16243,1660,4294966201,16,4294967126,4294967220,13508,7350,6619,219,332,128,15847,4294963633,4232,168,333,300,4294966718,4294966718,4294966718
593822846,6465380,6479716,16240,1699,4294966146,4294967293,4294967097,4294967181,13458,7353,6638,224,296,115,15797,4294963676,4166,309,329,271,4294966715,4294966715,4294966715
593828838,6465509,6479957,16211,1618,4294966186,4294967278,4294967079,4294967163,13527,7429,6671,229,272,125,15756,4294963687,4238,345,301,264,4294966722,4294966722,4294966722
593834848,6465608,6480046,16215,1597,4294966110,4294967260,4294967104,4294967132,13499,7489,6587,216,303,122,15783,4294963741,4093,263,272,258,4294966717,4294966717,4294966717
593840853,6465772,6480111,16190,1605,4294966096,4294967225,4294967108,4294967087,13501,7463,6692,217,314,160,15718,4294963715,4135,174,288,315,4294966717,4294966717,4294966717
593846849,6465948,6480539,16173,1617,4294966113,4294967210,4294967177,4294967066,13479,7459,6648,169,301,168,15832,4294963793,4140,65,336,334,4294966720,4294966720,4294966720
593852839,6465894,6480806,16107,1607,4294966142,4294967201,4294967180,4294967056,13452,7470,6642,161,287,204,15763,4294963743,4067,4294967284,307,339,4294966721,4294966721,4294966721
593858848,6465059,6480688,16157,1640,4294966174,4294967214,4294967168,4294967049,13450,7452,6720,162,273,221,15850,4294963791,4040,4294967208,324,330,4294966716,4294966716,4294966716
593864826,6465795,6481199,16163,1655,4294966162,4294967215,4294967145,4294967052,13460,7469,6621,126,210,217,15859,4294963745,4138,4294967070,361,296,4294966731,4294966731,4294966731
593870830,6467646,6482699,16178,1686,4294966196,4294967273,4294967135,4294967052,13495,7461,6734,65,188,224,15970,4294963706,4016,4294967101,314,287,4294966729,4294966729,4294966729
593876840,6470290,6484059,16242,1663,4294966215,6,4294967123,4294967069,13457,7425,6711,118,183,247,15807,4294963734,4017,4294967094,342,296,4294966723,4294966723,4294966723
593882849,6472465,6487895,16250,1688,4294966116,31,4294967082,4294967104,13427,7460,6670,153,198,250,15862,4294963690,3943,4294967089,231,292,4294966717,4294966717,4294966717
593888841,6469260,6484944,16243,1690,4294966178,67,4294967058,4294967140,13455,7420,6591,139,233,266,15941,4294963743,3959,4294967045,213,312,4294966723,4294966723,4294966723
593894836,6464448,6477222,16201,1750,4294966061,80,4294967015,4294967173,13431,7471,6661,202,259,267,15916,4294963768,3923,4294967073,173,267,4294966727,4294966727,4294966727
593900850,6462279,6474430,16217,1750,4294966178,29,4294966974,4294967192,13491,7389,6634,179,335,231,15954,4294963690,3881,4294967183,133,283,4294966712,4294966712,4294966712
593906835,6461196,6475476,16202,1731,4294966238,19,4294967020,4294967216,13420,7409,6778,199,308,201,16038,4294963711,4074,4294967255,106,280,4294966726,4294966726,4294966726
593912842,6461900,6476456,16277,1723,4294966288,4294967262,4294967053,4294967246,13480,7411,6768,225,243,123,15991,4294963772,4147,4294967276,73,270,4294966723,4294966723,4294966723
593918843,6463449,6478066,16324,1773,4294966273,4294967257,4294967029,4294967211,13436,7436,6309,190,118,117,15996,4294963701,4121,59,29,247,4294966720,4294966720,4294966720
593924841,6464836,6480154,16413,1842,4294966260,4294967258,4294966908,4294967258,13421,7457,6466,128,70,49,15999,4294963605,3941,208,0,180,4294966724,4294966724,4294966724
593930846,6465451,6480750,16370,1993,4294966051,58,4294966840,10,13461,7333,6873,272,197,4294967292,15973,4294963704,3932,348,22,125,4294966718,4294966718,4294966718
593936843,6465371,6480384,16387,1946,4294965815,152,4294966855,66,13461,7321,6857,408,201,4294967212,15938,4294963703,3949,330,4294967281,104,4294966720,4294966720,4294966720
593942846,6465847,6480654,16308,1925,4294965704,184,4294966996,95,13295,7445,6528,496,241,4294967164,16014,4294963706,4099,382,4294967263,75,4294966718,4294966718,4294966718
593948846,6466280,6481259,16288,1768,4294965827,95,4294967180,75,13454,7403,6676,489,358,4294967153,15976,4294963664,3848,426,37,38,4294966719,4294966719,4294966719
593954861,6466301,6480954,16189,1749,4294966015,13,64,4294967282,13528,7329,6876,436,414,4294967123,15894,4294963678,3809,437,142,12,4294966709,4294966709,4294966709
593960859,6466346,6481177,16169,1695,4294966112,4294967287,143,4294967200,13568,7366,6719,396,373,4294967065,15919,4294963733,3927,455,197,4294967289,4294966711,4294966711,4294966711
593966849,6466617,6481686,16127,1641,4294966257,4294967244,149,4294967101,13481,7390,6795,459,268,4294967065,15873,4294963619,4255,493,95,4294967248,4294966717,4294966717,4294966717
593972836,6466040,6480958,16063,1743,4294966374,4294967201,51,4294967084,13481,7519,6891,558,177,4294967045,15780,4294963474,4282,613,6,4294967160,4294966725,4294966725,4294966725
593978834,6466023,6480949,16080,1741,4294966370,4294967178,4294967135,4294967139,13434,7442,6813,566,110,4294967111,15757,4294963562,4118,686,4294967270,4294967077,4294966725,4294966725,4294966725
593986863,6466491,6481592,16125,1826,4294966267,4294967198,4294966879,4294967242,13388,7362,6438,456,33,4294967147,15686,4294963765,4119,694,4,4294967091,4294966706,4294966706,4294966706
593992853,6467058,6482474,16159,1837,4294966094,4294967197,4294966772,26,13392,7292,6319,302,41,4294967172,15675,4294963749,4145,581,54,4294967172,4294966713,4294966713,4294966713
593998852,6466583,6481591,16207,1709,4294965904,4294967153,4294966808,7,13448,7324,6434,110,60,4294967178,15705,4294963580,4266,416,41,4294967271,4294966714,4294966714,4294966714
594004841,6466744,6482047,16208,1649,4294965746,4294967194,4294966953,4294967272,13485,7348,6630,4294967278,57,4294967217,15716,4294963408,4209,209,4294967279,41,4294966721,4294966721,4294966721
594012836,6466816,6481996,16011,1573,4294965641,4294967220,44,4294967133,13597,7326,6642,128,10,4294967222,15827,4294963463,4151,62,4294967209,64,4294966723,4294966723,4294966723
594018843,6467034,6482382,16077,1552,4294965792,4294967154,362,4294967042,13634,7365,6568,291,4294967290,4294967186,15727,4294963547,4023,4294967265,4294967193,92,4294966723,4294966723,4294966723
594026836,6467024,6482179,16150,1597,4294965881,4294967057,520,4294966980,13592,7385,6500,410,4294967261,4294967181,15797,4294963694,3912,20,4294967270,148,4294966726,4294966726,4294966726
594032847,6467561,6483112,16156,1615,4294966055,4294966945,485,4294967016,13521,7394,6564,514,2,4294967203,15835,4294963667,3763,198,57,187,4294966718,4294966718,4294966718
594038835,6467091,6482274,16179,1662,4294966145,4294966963,383,4294967029,13534,7464,6618,626,45,4294967224,15847,4294963716,3771,388,90,227,4294966722,4294966722,4294966722
594044867,6467438,6482614,16230,1703,4294966314,4294967045,197,4294967088,13431,7568,6544,675,81,4294967253,15895,4294963707,3759,441,163,280,4294966706,4294966706,4294966706
594050850,6467051,6482307,16133,1765,4294966433,4294967163,4294967236,4294967105,13385,7524,6497,716,194,4294967280,15960,4294963761,3767,381,220,301,4294966718,4294966718,4294966718
594056848,6466952,6482192,16226,1877,4294966510,4294967281,4294967020,4294967118,13396,7569,6603,621,233,33,15951,4294963685,3931,389,231,308,4294966718,4294966718,4294966718
594062853,6466789,6482307,16319,1892,4294966497,65,4294966959,4294967150,13450,7670,6584,497,257,64,15952,4294963631,3974,429,210,251,4294966716,4294966716,4294966716
594068857,6467072,6482767,16367,1967,4294966501,17,4294966892,4294967154,13497,7663,6621,388,264,77,16016,4294963703,3998,431,189,202,4294966709,4294966709,4294966709
594074841,6467067,6482621,16429,1911,4294966394,10,4294966877,4294967157,13486,7663,6699,303,208,77,15984,4294963738,3918,430,136,176,4294966723,4294966723,4294966723
594080851,6467276,6482807,16368,1910,4294966244,4294967283,4294966845,4294967157,13590,7615,6681,202,177,122,15985,4294963766,4027,416,109,162,4294966716,4294966716,4294966716
594086852,6467942,6483453,16475,1801,4294966131,4294967255,4294966873,4294967160,13500,7598,6611,144,138,129,15968,4294963792,3960,432,95,132,4294966713,4294966713,4294966713
594092842,6467717,6483194,16423,1789,4294966070,4294967215,4294966967,4294967146,13521,7478,6599,37,158,131,15933,4294963851,4000,396,97,111,4294966721,4294966721,4294966721
594098848,6467509,6482818,16398,1780,4294966122,4294967223,4294967074,4294967130,13496,7465,6542,16,175,92,16010,4294963847,3934,347,137,100,4294966720,4294966720,4294966720
594104847,6467829,6483209,16372,1771,4294966055,4294967219,4294967085,4294967142,13385,7401,6595,4294967276,232,39,15995,4294963822,3842,376,187,97,4294966718,4294966718,4294966718
594110831,6467871,6483186,16280,1755,4294965993,4294967226,4294967118,4294967141,13436,7408,6579,4294967248,277,4294967258,15875,4294963916,3930,343,209,44,4294966725,4294966725,4294966725
594116862,6467611,6482501,16229,1698,4294966034,4294967239,4294967168,4294967123,13416,7401,6661,4294967293,300,4294967197,15895,4294963915,3897,306,195,36,4294966712,4294966712,4294966712
594122837,6467619,6482844,16147,1750,4294966026,4294967215,4294967236,4294967134,13457,7441,6678,28,353,4294967147,15895,4294963843,3991,336,180,25,4294966725,4294966725,4294966725
594128853,6467603,6482782,16076,1781,4294966079,4294967184,4294967285,4294967127,13435,7516,6654,58,374,4294967136,15838,4294963839,4014,318,135,4294967291,4294966712,4294966712,4294966712
594134845,6467571,6482590,16042,1762,4294966103,4294967155,19,4294967155,13415,7501,6633,74,336,4294967129,15885,4294963807,4119,270,87,4294967288,4294966717,4294966717,4294966717
594140834,6466969,6482160,15979,1762,4294966161,4294967202,22,4294967179,13473,7566,6606,130,308,4294967108,15856,4294963745,4126,277,48,4294967254,4294966724,4294966724,4294966724
594146842,6467001,6482392,15998,1861,4294966198,4294967113,12,4294967195,13502,7487,6675,158,268,4294967127,15858,4294963677,3967,286,13,4294967208,4294966723,4294966723,4294966723
594152859,6467247,6482642,16068,1848,4294966248,4294967014,4294967214,4294967276,13495,7382,6791,221,235,4294967165,15853,4294963713,3974,301,15,4294967171,4294966710,4294966710,4294966710
594158835,6466314,6481533,16105,1791,4294966155,4294967008,4294967117,4294967277,13488,7274,6811,328,224,4294967160,15870,4294963758,4077,302,33,4294967167,4294966727,4294966727,4294966727
594164841,6466713,6482182,16209,1814,4294966245,4294967048,4294966964,4294967290,13390,7277,6837,386,176,4294967117,15801,4294963770,4133,298,32,4294967130,4294966722,4294966722,4294966722
594170838,6466771,6482188,16215,1779,4294966171,4294967147,4294966918,4294967284,13380,7335,6813,360,163,4294967119,15790,4294963737,4115,290,4294967271,4294967144,4294966725,4294966725,4294966725
594178839,6466463,6481662,16269,1725,4294966107,26,4294966926,3,13355,7395,6633,295,117,4294967125,15813,4294963756,3949,255,4294967205,4294967149,4294966722,4294966722,4294966722
594184850,6467199,6482843,16269,1848,4294966100,43,4294966975,13,13387,7423,6542,293,89,4294967132,15789,4294963777,3827,249,4294967210,4294967200,4294966715,4294966715,4294966715
594190859,6467005,6482350,16285,1844,4294966089,4294967277,4294966999,64,13450,7386,6455,430,90,4294967154,15870,4294963822,3940,152,4294967237,4294967199,4294966712,4294966712,4294966712
594196872,6466662,6481885,16291,1781,4294966157,4294967141,4294967030,73,13478,7381,6398,573,140,4294967116,15885,4294963797,3854,103,4294967241,4294967217,4294966699,4294966699,4294966699
594202844,6466488,6481694,16303,1702,4294966124,4294967092,4294967115,49,13514,7394,6405,661,195,4294967129,15869,4294963718,3952,102,4294967265,4294967226,4294966717,4294966717,4294966717
594208851,6466424,6481786,16235,1660,4294966117,4294967071,4294967183,4294967285,13576,7488,6416,718,241,4294967117,15907,4294963734,3989,155,4294967255,4294967260,4294966718,4294966718,4294966718
594216846,6466014,6481087,16159,1614,4294966034,4294967025,4294967225,4294967197,13533,7501,6433,778,223,4294967107,15936,4294963757,4034,157,4294967229,4294967269,4294966718,4294966718,4294966718
594224845,6466815,6482140,16168,1611,4294966041,4294966979,4294967248,4294967154,13566,7475,6435,860,253,4294967139,15969,4294963707,4056,212,4294967207,4294967254,4294966719,4294966719,4294966719
594232863,6466331,6481827,16150,1618,4294966137,4294966913,4294967250,4294967128,13617,7370,6513,1012,282,4294967151,15975,4294963694,4027,368,4294967260,4294967255,4294966708,4294966708,4294966708
594240846,6466423,6481768,16217,1589,4294966236,4294966840,4294967203,4294967164,13581,7352,6616,1162,307,4294967074,15899,4294963648,4061,536,4294967286,4294967242,4294966719,4294966719,4294966719
594248833,6466466,6481990,16251,1572,4294966284,4294966938,4294967107,4294967143,13528,7320,6660,1132,389,4294967013,15966,4294963694,4018,665,20,4294967226,4294966727,4294966727,4294966727
594254848,6466680,6482169,16267,1587,4294966302,4294967004,4294967029,4294967127,13465,7336,6638,1099,400,4294966993,15887,4294963667,3922,722,45,4294967222,4294966717,4294966717,4294966717
594260837,6466056,6481333,16252,1669,4294966338,4294967016,4294966948,4294967101,13495,7380,6667,1012,421,4294966969,15899,4294963752,3862,676,39,4294967251,4294966722,4294966722,4294966722
594266851,6466129,6481577,16282,1698,4294966339,4294966999,4294966905,4294967129,13437,7441,6681,918,390,4294966967,15857,4294963807,3774,549,81,4294967270,4294966719,4294966719,4294966719
594272847,6466128,6481283,16271,1688,4294966347,4294967010,4294966878,4294967160,13415,7466,6751,894,381,4294966996,15870,4294963732,3919,369,101,1,4294966721,4294966721,4294966721
594278847,6465891,6480936,16278,1718,4294966344,4294967032,4294966890,4294967160,13392,7519,6628,835,366,4294966999,15788,4294963700,3864,303,133,11,4294966713,4294966713,4294966713
594284848,6466068,6481325,16219,1727,4294966351,4294967044,4294966925,4294967200,13339,7481,6710,852,345,4294966994,15850,4294963746,3926,316,104,4294967284,4294966711,4294966711,4294966711
594290847,6466160,6481769,16180,1820,4294966247,4294967136,4294966917,4294967183,13289,7566,6615,862,346,4294967041,15887,4294963750,3971,232,98,26,4294966717,4294966717,4294966717
594296839,6466122,6481349,16199,1784,4294966256,4294967157,4294966915,4294967231,13330,7556,6533,904,375,4294967033,15838,4294963688,4014,185,64,4294967281,4294966725,4294966725,4294966725
594302853,6466459,6481780,16160,1798,4294966225,4294967238,4294966966,4294967258,13360,7503,6461,960,458,4294967016,15839,4294963672,4015,132,15,4294967290,4294966717,4294966717,4294966717
594308838,6466302,6482029,16151,1862,4294966129,4294967218,4294966996,4294967254,13427,7497,6422,1112,511,4294966983,15816,4294963740,3994,203,4294967213,4294967256,4294966721,4294966721,4294966721
594316869,6465477,6480657,16196,1800,4294966131,4294967213,4294967082,4294967229,13423,7459,6440,1206,545,4294966947,15883,4294963771,4110,282,4294967177,4294967240,4294966705,4294966705,4294966705
594324836,6466002,6481816,16160,1747,4294966099,4294967160,4294967134,4294967221,13420,7450,6537,1081,469,4294966922,15804,4294963661,4054,429,4294967200,4294967182,4294966725,4294966725,4294966725
594332839,6465678,6481352,16162,1672,4294966110,4294967119,4294967196,4294967154,13487,7482,6565,698,430,4294966901,15802,4294963658,4054,510,4294967167,4294967132,4294966725,4294966725,4294966725
594340839,6465819,6481556,16156,1612,4294966261,4294967033,4294967181,4294967120,13489,7619,6594,623,355,4294966944,15877,4294963681,4063,532,4294967229,4294967151,4294966724,4294966724,4294966724
594348853,6465762,6481593,16200,1578,4294966231,4294966946,4294967166,4294967094,13472,7671,6649,556,236,4294967023,15887,4294963716,3997,353,4294967284,4294967199,4294966715,4294966715,4294966715
594356828,6466257,6481809,16210,1552,4294966212,4294967014,4294967090,4294967037,13501,7568,6713,418,138,4294967095,15958,4294963733,3976,222,83,4294967226,4294966728,4294966728,4294966728
594362854,6466469,6482351,16247,1568,4294966225,4294967040,4294967029,4294967011,13485,7653,6721,445,35,4294967131,15889,4294963656,3870,299,211,92,4294966715,4294966715,4294966715
594368829,6466051,6481487,16265,1606,4294966286,4294967100,4294966989,4294967034,13454,7644,6533,411,9,4294967168,15805,4294963727,3892,196,160,17,4294966730,4294966730,4294966730
594374831,6466204,6481558,16225,1654,4294966242,4294967150,4294966943,4294967043,13491,7686,6609,378,4294967273,4294967225,15853,4294963754,3860,230,162,69,4294966728,4294966728,4294966728
594380834,6465996,6481306,16231,1770,4294966253,4294967169,4294966957,4294967083,13529,7654,6594,439,2,4294967265,15880,4294963784,3828,244,171,96,4294966727,4294966727,4294966727
594386834,6465976,6481506,16206,1766,4294966270,4294967233,4294966895,4294967135,13450,7653,6553,479,17,4294967264,15873,4294963835,3902,217,89,108,4294966728,4294966728,4294966728
594392861,6465993,6481458,16307,1758,4294966139,6,4294966909,4294967158,13461,7584,6524,512,31,4294967256,15930,4294963886,3903,208,67,107,4294966709,4294966709,4294966709
594398853,6465718,6480875,16243,1729,4294966044,22,4294966928,4294967194,13456,7499,6478,521,94,4294967245,15913,4294963876,3954,462,63,191,4294966715,4294966715,4294966715
594404856,6465946,6481102,16277,1694,4294966093,21,4294966978,4294967201,13436,7491,6417,572,186,4294967219,15830,4294963858,3966,411,23,149,4294966710,4294966710,4294966710
594410844,6465775,6480632,16208,1680,4294966048,4294967268,4294966967,4294967202,13426,7618,6382,492,273,4294967166,15896,4294963884,3838,493,4294967266,163,4294966720,4294966720,4294966720
594416838,6465488,6480119,16216,1629,4294966059,4294967205,4294966985,4294967205,13357,7489,6363,447,336,4294967120,15892,4294963956,3922,471,14,117,4294966723,4294966723,4294966723
594422849,6465724,6480579,16206,1628,4294966062,4294967242,4294967003,4294967181,13301,7605,6368,467,374,4294967078,15856,4294963974,3882,502,25,99,4294966719,4294966719,4294966719
594428847,6465928,6480926,16195,1678,4294966133,36,4294967025,4294967155,13261,7721,6352,305,446,4294967111,15836,4294963897,3862,432,10,65,4294966716,4294966716,4294966716
594434839,6465346,6480438,16175,1660,4294966148,4294967289,4294967016,4294967152,13267,7626,6480,194,474,4294967082,15848,4294963899,3813,392,21,95,4294966723,4294966723,4294966723
594440841,6465065,6480163,16154,1684,4294966116,27,4294967032,4294967162,13218,7680,6609,93,467,4294967046,15921,4294963861,3830,309,46,56,4294966721,4294966721,4294966721
594446859,6465152,6481478,16137,1792,4294966056,20,4294967017,4294967166,13196,7722,6612,4294967287,406,4294966994,15873,4294963825,3852,131,60,50,4294966712,4294966712,4294966712
594452843,6465872,6481774,16129,1828,4294966109,55,4294966997,4294967185,13251,7890,6642,4294967238,282,4294966994,15884,4294963856,3868,77,42,63,4294966717,4294966717,4294966717
594458860,6467366,6482648,16161,1829,4294966055,4294967289,4294967024,4294967246,13331,7897,6676,4294967138,165,4294967025,16011,4294963863,3873,47,4294967245,25,4294966707,4294966707,4294966707
594466841,6471977,6486990,16098,1783,4294966044,100,4294967115,1,13371,7878,6623,4294967087,77,4294967127,16028,4294963793,3960,6,4294967193,4294967280,4294966721,4294966721,4294966721
594472853,6471504,6487842,16149,1766,4294965932,81,4294967124,39,13349,7931,6536,4294967186,50,4294967156,16014,4294963851,3883,4294967258,4294967157,18,4294966712,4294966712,4294966712
594478847,6468679,6484406,16206,1726,4294966113,90,4294967173,80,13427,7847,6471,4294967146,71,4294967132,16084,4294963913,3869,17,4294967150,4294967294,4294966721,4294966721,4294966721
594484869,6464024,6477328,16212,1730,4294966104,17,4294967219,80,13436,7731,6532,4294967189,170,4294967110,16062,4294963976,3840,92,4294967134,45,4294966704,4294966704,4294966704
594490837,6461186,6475735,16183,1747,4294966161,4294967287,4294967196,102,13418,7684,6561,4294967145,282,4294967124,16031,4294963961,3802,121,4294967119,78,4294966723,4294966723,4294966723
594496843,6460949,6476545,16220,1686,4294966293,4294967259,4294967172,70,13342,7580,6654,4294967003,250,4294967074,16032,4294963901,3981,215,4294967090,72,4294966723,4294966723,4294966723
594502845,6462318,6477873,16282,1754,4294966356,4294967260,4294967047,50,13371,7580,6342,4294966890,173,4294966951,16014,4294963999,3891,342,4294967018,30,4294966721,4294966721,4294966721
594508836,6463948,6480034,16362,1779,4294966328,37,4294966918,18,13406,7677,6077,4294966661,233,4294966904,16016,4294963974,3679,433,4294966999,4294967292,4294966725,4294966725,4294966725
594514847,6464736,6480670,16413,1964,4294966250,123,4294966813,42,13341,7593,6560,4294966614,305,4294966854,15962,4294963993,3531,586,4294967039,4294967275,4294966719,4294966719,4294966719
594520854,6465078,6480866,16448,2064,4294965974,261,4294966798,106,13296,7581,6851,4294966725,417,4294966782,15980,4294964021,3578,596,4294967057,4294967263,4294966712,4294966712,4294966712
594526838,6465500,6481371,16407,2110,4294965830,280,4294966924,220,13213,7802,6637,4294966804,403,4294966715,16045,4294964060,3778,461,4294967077,4294967234,4294966724,4294966724,4294966724
594532843,6465407,6481028,16324,2062,4294965780,271,4294967147,213,13264,7876,6526,4294966847,353,4294966733,16005,4294963962,3691,414,4294967110,4294967254,4294966719,4294966719,4294966719
594538848,6465461,6480915,16275,2112,4294965871,139,50,190,13227,7679,6778,4294966910,358,4294966758,15975,4294963956,3567,359,4294967183,4294967199,4294966717,4294966717,4294966717
594544855,6465879,6481523,16192,2049,4294966102,4294967247,168,138,13441,7799,6805,4294966879,309,4294966768,16062,4294963918,3615,232,4294967254,4294967169,4294966714,4294966714,4294966714
594550854,6465901,6481364,16147,1889,4294966302,4294967168,175,75,13450,7731,6806,4294966924,171,4294966798,16060,4294963885,3871,228,4294967261,4294967153,4294966711,4294966711,4294966711
594556864,6465732,6481158,16136,1865,4294966329,4294967125,136,4294967288,13506,7743,6964,4294967100,20,4294966817,16070,4294963767,4115,239,4294967136,4294967126,4294966709,4294966709,4294966709
594564842,6466168,6481866,16194,1877,4294966385,4294966979,4294967209,4294967234,13453,7797,6686,9,4294967218,4294966818,16054,4294963877,4076,301,4294966929,4294967101,4294966718,4294966718,4294966718
594572843,6466219,6482113,16230,1838,4294966298,4294967082,4294966899,4294967287,13415,7691,6341,4294967288,4294967251,4294966860,15938,4294964101,3907,390,4294966895,4294967110,4294966722,4294966722,4294966722
594580845,6466473,6482273,16199,1938,4294966126,4294967142,4294966732,63,13448,7523,6266,4294967006,79,4294966964,15933,4294963948,3875,405,4294966956,4294967162,4294966715,4294966715,4294966715
594588835,6466570,6482449,16262,1728,4294965841,4294967034,4294966778,88,13455,7546,6378,4294966794,123,4294966848,16056,4294963809,3881,250,4294967059,4294967184,4294966726,4294966726,4294966726
594596852,6466770,6482604,16222,1623,4294965716,4294967224,4294967111,4294967249,13480,7617,6422,4294966695,94,4294966827,16021,4294963815,3890,114,4294967078,4294967205,4294966711,4294966711,4294966711
594604843,6466983,6482673,16170,1637,4294965730,4294967232,174,4294967089,13452,7627,6667,4294966902,4294967283,4294966805,15978,4294963948,3796,4294967248,4294967139,4294967239,4294966720,4294966720,4294966720
594612844,6467506,6483531,16155,1688,4294965831,4294967148,376,4294967033,13449,7708,6608,4294967104,4294967293,4294966809,15992,4294964010,3606,4294967261,4294967229,4294967264,4294966717,4294966717,4294966717
594620849,6466875,6482770,16130,1729,4294966009,4294967089,332,4294967046,13380,7696,6553,4294967277,22,4294966824,15968,4294963908,3535,94,33,28,4294966717,4294966717,4294966717
594626843,6467879,6484269,16195,1906,4294966104,4294967017,259,4294967090,13395,7775,6449,178,129,4294966844,16041,4294963949,3495,245,119,46,4294966716,4294966716,4294966716
594632836,6467719,6483895,16159,1920,4294966212,4294967010,125,4294967146,13330,7862,6522,265,223,4294966887,16108,4294963978,3480,293,85,42,4294966726,4294966726,4294966726
594638852,6467584,6483726,16194,1946,4294966348,4294967109,4294967243,4294967176,13274,7890,6416,310,321,4294966935,16140,4294963981,3529,360,163,62,4294966713,4294966713,4294966713
594644841,6467791,6484216,16295,1915,4294966422,36,4294967144,4294967227,13296,8014,6409,212,343,4294966938,16150,4294964012,3636,385,162,29,4294966721,4294966721,4294966721
594650849,6467355,6483865,16251,2022,4294966306,29,4294967074,4294967237,13302,7963,6395,214,291,4294966973,16133,4294963987,3701,388,88,35,4294966713,4294966713,4294966713
594656847,6467190,6483480,16349,1921,4294966335,4294967236,4294966954,4294967246,13340,7855,6451,157,289,4294967004,16103,4294963975,3775,456,19,25,4294966721,4294966721,4294966721
594662842,6467549,6483536,16366,1922,4294966190,4294967278,4294966953,4294967212,13415,7865,6435,155,275,4294966997,16092,4294963922,3734,519,4294967293,4294967274,4294966723,4294966723,4294966723
594670848,6467367,6483444,16373,1829,4294966099,4294967171,4294966991,4294967193,13411,7897,6341,74,268,4294967033,16066,4294963920,3697,446,6,4294967221,4294966720,4294966720,4294966720
594676849,6467863,6483902,16318,1815,4294966151,4294967145,4294967020,4294967160,13466,7844,6300,4294967166,300,4294967010,16101,4294963953,3644,416,45,4294967213,4294966719,4294966719,4294966719
594684847,6468031,6484114,16391,1814,4294966055,4294967083,4294967064,4294967107,13427,7797,6367,4294967040,314,4294966952,16091,4294964025,3573,302,75,4294967225,4294966719,4294966719,4294966719
594692857,6468227,6484057,16358,1693,4294966006,4294966962,4294967104,4294967064,13455,7813,6405,4294966980,273,4294966963,16032,4294964013,3544,179,109,4294967184,4294966709,4294966709,4294966709
594700849,6467722,6483589,16293,1668,4294965964,4294966915,4294967109,4294967033,13419,7857,6522,4294966935,245,4294966998,16092,4294964067,3532,127,189,4294967169,4294966717,4294966717,4294966717
594708844,6468293,6484254,16233,1642,4294966049,4294966913,4294967123,4294967033,13456,7828,6599,4294966982,262,4294967024,16053,4294964025,3545,158,205,4294967190,4294966719,4294966719,4294966719
594716842,6467416,6483156,16224,1594,4294965965,4294966855,4294967137,4294967031,13410,7840,6661,4294967046,304,4294967078,16072,4294963984,3700,223,237,4294967218,4294966721,4294966721,4294966721
594724856,6467667,6483426,16127,1587,4294966082,4294966918,4294967201,4294967001,13352,7850,6512,4294967037,315,4294967077,16018,4294963988,3673,233,197,4294967251,4294966713,4294966713,4294966713
594732862,6466868,6482592,16100,1691,4294966170,4294966928,4294967254,4294967021,13331,7832,6619,4294967113,362,4294967121,15947,4294964044,3569,271,208,4294967227,4294966714,4294966714,4294966714
594740854,6466998,6482832,16157,1633,4294966215,4294966927,4294967213,4294967028,13354,7801,6496,4294967149,364,4294967156,15920,4294964148,3627,301,285,4294967238,4294966716,4294966716,4294966716
594748847,6466614,6482561,16186,1602,4294966147,4294966981,4294967130,4294967074,13327,7771,6586,4294967169,402,4294967172,15956,4294964132,3753,330,326,4294967270,4294966716,4294966716,4294966716
594756852,6466938,6482883,16198,1632,4294966158,4294967118,4294967039,4294967078,13340,7832,6580,4294967060,316,4294967154,15900,4294963989,3837,295,300,7,4294966715,4294966715,4294966715
594762847,6466793,6482758,16201,1653,4294966229,4294967259,4294966982,4294967098,13342,7784,6537,4294966961,287,4294967163,15971,4294964008,3793,268,252,13,4294966715,4294966715,4294966715
594768846,6466266,6482028,16257,1762,4294966075,70,4294966951,4294967134,13329,7765,6553,4294966951,244,4294967201,15949,4294963955,3702,267,224,55,4294966717,4294966717,4294966717
594774848,6466459,6482259,16215,1734,4294965990,59,4294966992,4294967173,13259,7852,6552,4294966969,203,4294967217,15952,4294964050,3635,295,195,55,4294966720,4294966720,4294966720
594780843,6466186,6481861,16248,1750,4294966011,5,4294966977,4294967203,13316,7880,6508,4294966986,155,4294967234,15965,4294964054,3593,286,176,106,4294966718,4294966718,4294966718
594786839,6466431,6482275,16273,1760,4294966000,4294967272,4294967025,4294967232,13301,7839,6538,4294966984,162,4294967260,15993,4294964083,3661,376,180,156,4294966725,4294966725,4294966725
594792837,6466431,6482289,16194,1688,4294966054,4294967251,4294967065,4294967236,13312,7913,6492,4294966954,207,4294967283,16004,4294964116,3602,304,191,174,4294966723,4294966723,4294966723
594798832,6466282,6482091,16278,1706,4294966019,4294967266,4294967142,4294967211,13317,7865,6501,4294966891,186,8,16049,4294964079,3595,247,185,206,4294966728,4294966728,4294966728
594804850,6466443,6482541,16206,1691,4294965947,4294967249,4294967230,4294967182,13306,7885,6548,4294966847,162,8,15997,4294964098,3738,209,167,190,4294966714,4294966714,4294966714
594810847,6466327,6482366,16146,1676,4294965921,4294967229,4294967283,4294967178,13246,7881,6503,4294966814,149,4294967290,16037,4294964049,3731,258,153,206,4294966716,4294966716,4294966716
594816847,6465753,6481620,16215,1702,4294965947,4294967169,66,4294967133,13298,7850,6565,4294966876,137,4294967285,16100,4294964063,3683,317,114,221,4294966720,4294966720,4294966720
594822847,6465873,6481782,16256,1732,4294966013,4294967157,80,4294967134,13322,7911,6541,4294966879,123,4294967255,16076,4294964116,3688,465,137,229,4294966718,4294966718,4294966718
594828849,6465821,6481812,16280,1719,4294966044,4294967156,53,4294967141,13412,7870,6535,4294966920,148,4294967274,16113,4294964056,3668,427,96,185,4294966716,4294966716,4294966716
594834844,6466125,6482053,16180,1767,4294966206,4294967227,57,4294967171,13433,7890,6583,4294966900,121,0,16118,4294964131,3592,525,81,203,4294966717,4294966717,4294966717
594840842,6465926,6481794,16238,1711,4294966225,4,4294967256,4294967183,13356,7865,6494,4294966845,150,28,16102,4294964096,3679,464,102,199,4294966723,4294966723,4294966723
594846834,6466176,6482365,16239,1732,4294966161,30,4294967155,4294967171,13371,7871,6551,4294966769,168,33,16105,4294964161,3626,521,141,205,4294966725,4294966725,4294966725
594852837,6466472,6482688,16346,1740,4294966255,27,4294967090,4294967197,13330,7794,6561,4294966748,164,63,16083,4294964092,3521,492,131,201,4294966721,4294966721,4294966721
594858850,6466084,6482040,16353,1746,4294966154,4294967249,4294967038,4294967197,13365,7720,6692,4294966732,167,60,16047,4294964085,3514,489,191,202,4294966717,4294966717,4294966717
594864871,6466194,6482294,16318,1769,4294966164,4294967207,4294966989,4294967221,13378,7672,6693,4294966775,157,47,16076,4294964104,3473,522,175,180,4294966701,4294966701,4294966701
594870859,6466249,6482371,16281,1776,4294966192,4294967149,4294966956,4294967216,13337,7595,6657,4294966769,198,20,16031,4294964140,3588,502,239,196,4294966708,4294966708,4294966708
594876849,6465652,6481593,16330,1742,4294966115,4294967203,4294966962,4294967234,13319,7630,6749,4294966748,206,4294967279,16084,4294964101,3566,528,236,231,4294966715,4294966715,4294966715
594882844,6466030,6481709,16356,1759,4294966150,4,4294967038,4294967213,13243,7676,6783,4294966802,278,4294967244,16100,4294964221,3587,514,239,184,4294966722,4294966722,4294966722
594888851,6466369,6482210,16321,1816,4294966088,93,4294967068,4294967202,13255,7703,6736,4294966764,327,4294967240,16093,4294964217,3490,493,215,136,4294966716,4294966716,4294966716
594894840,6465848,6481542,16335,1730,4294966030,214,4294967152,4294967201,13194,7818,6816,4294966777,388,4294967203,16114,4294964213,3580,474,223,91,4294966719,4294966719,4294966719
594900859,6465835,6481842,16291,1856,4294965991,214,4294967132,4294967198,13183,7759,6791,4294966811,396,4294967203,16103,4294964152,3605,408,214,92,4294966711,4294966711,4294966711
594906850,6466019,6482235,16163,1874,4294965951,414,108,4294967139,13122,7852,6799,4294966853,399,4294967176,16025,4294964151,3668,324,184,79,4294966716,4294966716,4294966716
594912838,6465746,6481781,16066,1955,4294966103,276,4294967275,4294967249,13162,7854,6700,4294966849,441,4294967157,16051,4294964083,3687,325,140,85,4294966725,4294966725,4294966725
594918866,6465770,6481814,16064,1998,4294966156,170,7,17,13227,7820,6727,4294966963,450,4294967139,16032,4294964098,3764,305,90,69,4294966707,4294966707,4294966707
594924841,6465932,6482513,16112,1911,4294966038,8,4294967293,75,13205,7772,6731,4294967077,494,4294967130,16006,4294964126,3749,281,67,71,4294966724,4294966724,4294966724
594930839,6465984,6482573,16202,1900,4294966158,6,14,90,13241,7800,6732,4294967145,586,4294967110,15984,4294964089,3803,368,23,89,4294966721,4294966721,4294966721
594936841,6465737,6482024,16148,1856,4294966136,80,29,84,13225,7736,6802,4294967140,501,4294967085,16030,4294964159,3774,399,29,67,4294966720,4294966720,4294966720
594942838,6466206,6482326,16164,1809,4294966120,111,103,34,13272,7669,6731,4294967097,436,4294967086,16037,4294964041,3784,440,37,66,4294966726,4294966726,4294966726
594948837,6466548,6482972,16154,1886,4294966195,136,30,53,13288,7671,6701,4294967063,421,4294967102,16024,4294964039,3797,417,30,33,4294966724,4294966724,4294966724
594954836,6466241,6482408,16206,1764,4294966267,77,75,66,13266,7598,6648,4294966941,363,4294967084,16008,4294963984,3671,460,44,24,4294966726,4294966726,4294966726
594960841,6466270,6482543,16153,1771,4294966230,4294967231,32,43,13347,7649,6712,4294966906,350,4294967092,15971,4294964000,3744,506,58,43,4294966721,4294966721,4294966721
594966852,6466750,6482922,16233,1724,4294966239,4294967220,1,11,13361,7652,6689,4294966860,318,4294967121,16011,4294964007,3633,495,127,47,4294966713,4294966713,4294966713
594972878,6466747,6482528,16173,1752,4294966241,4294967181,4294967262,4294967291,13402,7731,6701,4294966832,239,4294967140,16006,4294964032,3571,479,182,62,4294966698,4294966698,4294966698
594978836,6466528,6482331,16216,1750,4294966281,4294967108,4294967207,4294967249,13394,7714,6796,4294966765,169,4294967180,16072,4294964106,3616,430,262,85,4294966723,4294966723,4294966723
594984866,6466620,6482504,16183,1768,4294966257,4294967081,4294967117,4294967267,13468,7691,6766,4294966707,82,4294967242,16101,4294964021,3523,368,347,135,4294966704,4294966704,4294966704
594990832,6466597,6482371,16272,1746,4294966221,4294967092,4294967096,4294967234,13455,7662,6795,4294966649,18,10,15982,4294964090,3554,304,395,160,4294966728,4294966728,4294966728
594996838,6465936,6481350,16324,1766,4294966181,4294967119,4294967050,4294967214,13480,7632,6727,4294966741,4294967289,42,16037,4294964105,3478,246,385,160,4294966724,4294966724,4294966724
595002845,6466091,6481586,16286,1750,4294966208,4294967135,4294967018,4294967212,13406,7591,6806,4294966746,4294967241,73,16037,4294964066,3537,234,373,187,4294966719,4294966719,4294966719
595008846,6465948,6481662,16281,1698,4294966178,4294967092,4294966990,4294967177,13462,7598,6817,4294966638,4294967238,96,16062,4294964076,3548,246,340,220,4294966720,4294966720,4294966720
595014839,6465768,6481178,16363,1703,4294966159,4294967120,4294966959,4294967194,13393,7571,6806,4294966559,4294967238,81,16015,4294964082,3613,247,273,229,4294966721,4294966721,4294966721
595020850,6465900,6481287,16441,1612,4294966186,4294967109,4294966992,4294967149,13402,7582,6893,4294966617,4294967282,107,16009,4294964050,3577,234,215,217,4294966712,4294966712,4294966712
595026839,6465761,6481498,16208,1706,4294966198,4294967190,4294966972,4294967132,13366,7688,6843,4294966638,4294967268,101,16016,4294964093,3565,294,190,189,4294966722,4294966722,4294966722
595032849,6465855,6481753,16271,1715,4294966163,4294967213,4294967010,4294967132,13324,7701,6731,4294966592,4294967254,114,16106,4294964084,3590,272,193,221,4294966718,4294966718,4294966718
595038837,6465506,6482039,16207,1762,4294966137,4294967230,4294967076,4294967141,13319,7670,6689,4294966511,4294967262,123,16084,4294964172,3643,218,181,235,4294966725,4294966725,4294966725
595044853,6466719,6483141,16164,1688,4294966247,4294967214,4294967130,4294967166,13294,7624,6623,4294966489,17,114,16071,4294964103,3706,201,217,257,4294966717,4294966717,4294966717
595050859,6468482,6484155,16188,1724,4294966179,4294967204,4294967137,4294967178,13279,7670,6688,4294966587,104,102,16095,4294964070,3701,326,207,284,4294966709,4294966709,4294966709
595056831,6469581,6484272,16156,1703,4294966050,4294967222,4294967167,4294967192,13241,7664,6640,4294966709,179,56,16095,4294964134,3726,228,191,249,4294966727,4294966727,4294966727
595062862,6472818,6487552,16206,1670,4294966077,4294967229,4294967177,4294967206,13260,7655,6653,4294966809,198,33,16097,4294964148,3680,271,181,296,4294966708,4294966708,4294966708
595068858,6472558,6488398,16188,1669,4294966083,4294967246,4294967182,4294967232,13269,7636,6568,4294966818,270,12,16061,4294964046,3657,385,186,275,4294966709,4294966709,4294966709
595074857,6467571,6481736,16163,1711,4294966100,4294967224,4294967207,4294967252,13304,7630,6581,4294966852,379,11,16088,4294964110,3631,426,189,255,4294966709,4294966709,4294966709
595080842,6462578,6476434,16186,1763,4294966106,4294967203,4294967191,4294967281,13259,7638,6676,4294966882,422,4294967262,16100,4294964151,3527,523,195,255,4294966724,4294966724,4294966724
595086853,6461776,6477751,16156,1770,4294966127,4294967187,4294967229,4294967295,13262,7635,6833,4294966811,385,4294967242,16104,4294964121,3599,439,206,218,4294966715,4294966715,4294966715
595092830,6463014,6479134,16198,1832,4294966265,4294967154,4294967086,4294967291,13268,7625,6705,4294966735,268,4294967180,16083,4294964159,3795,375,233,193,4294966729,4294966729,4294966729
595098850,6464405,6480349,16288,1811,4294966194,4294967075,4294967006,4294967275,13309,7704,6496,4294966706,175,4294967198,16008,4294964109,3729,378,226,168,4294966715,4294966715,4294966715
595104848,6465822,6482140,16334,1812,4294966170,4294967068,4294966952,7,13254,7617,6665,4294966640,141,4294967143,16028,4294964051,3600,412,196,139,4294966717,4294966717,4294966717
595110860,6466367,6482607,16363,1922,4294966044,4294967190,4294966930,31,13192,7581,7069,4294966706,188,4294967146,15982,4294964070,3494,508,194,124,4294966709,4294966709,4294966709
595116862,6466445,6482418,16351,1946,4294965870,6,4294966951,93,13283,7593,7029,4294966846,209,4294967102,16010,4294964055,3593,549,176,120,4294966708,4294966708,4294966708
595122839,6466860,6482902,16338,1891,4294965800,58,4294967053,114,13216,7755,6802,4294966893,141,4294967066,16035,4294964105,3627,466,105,159,4294966723,4294966723,4294966723
595128869,6466849,6482537,16246,1861,4294965757,52,4294967250,113,13297,7649,6867,4294966935,169,4294967077,16015,4294964117,3509,466,82,159,4294966703,4294966703,4294966703
595134835,6466755,6482467,16241,1808,4294965996,4294967210,105,53,13358,7484,6970,4294967049,215,4294967098,15987,4294964069,3389,399,126,202,4294966726,4294966726,4294966726
595140849,6466749,6482569,16205,1701,4294966190,4294967085,202,5,13445,7445,6977,4294967035,177,4294967084,15998,4294964058,3590,327,150,201,4294966716,4294966716,4294966716
595146860,6467091,6483288,16131,1691,4294966384,4294966926,175,4294967201,13386,7522,7122,4294967024,49,4294967072,16027,4294964039,3762,373,137,192,4294966708,4294966708,4294966708
595152835,6467053,6483022,16205,1648,4294966548,4294966796,66,4294967175,13425,7684,7190,4294966931,4294967287,4294967071,16040,4294963920,4035,489,59,145,4294966724,4294966724,4294966724
595158843,6466878,6482762,16275,1693,4294966510,4294966853,4294967128,4294967173,13427,7626,7024,4294966838,4294967212,4294967157,15975,4294963900,3934,572,4294967264,68,4294966716,4294966716,4294966716
595166847,6467184,6483441,16285,1801,4294966479,4294967048,4294966850,4294967212,13415,7540,6727,4294966685,4294967127,4294967250,15951,4294964136,3833,745,4294967209,37,4294966718,4294966718,4294966718
595174844,6467433,6483618,16348,1886,4294966169,4294967145,4294966770,4294967290,13441,7514,6538,4294966548,4294967120,27,15893,4294964155,3787,647,20,85,4294966719,4294966719,4294966719
595180843,6468003,6484259,16340,1789,4294965937,4294967121,4294966881,58,13454,7445,6591,4294966509,4294967126,42,15876,4294964039,3817,375,119,161,4294966718,4294966718,4294966718
595186846,6467648,6483590,16252,1646,4294965815,4294967183,4294967113,11,13443,7472,6753,4294966544,4294967148,64,16018,4294963974,3825,183,174,223,4294966720,4294966720,4294966720
595192828,6467637,6483626,16190,1539,4294965744,4294967210,92,4294967195,13439,7444,6937,4294966785,4294967145,72,16034,4294963872,3781,33,141,271,4294966728,4294966728,4294966728
595198853,6467088,6482817,16132,1511,4294965810,4294967201,361,4294967107,13432,7443,6895,4294966993,4294967156,48,16039,4294963898,3693,6,87,263,4294966715,4294966715,4294966715
595204844,6467417,6483406,16173,1500,4294965857,4294967115,555,4294967011,13450,7464,6843,4294967132,4294967142,54,16044,4294964143,3633,107,52,285,4294966718,4294966718,4294966718
595210837,6467367,6483391,16087,1569,4294966113,4294967063,602,4294967006,13390,7535,6781,4294967216,4294967168,58,16067,4294964188,3415,41,101,314,4294966725,4294966725,4294966725
595216840,6467019,6483069,16107,1529,4294966177,4294967024,500,4294967039,13301,7628,6839,4294967167,4294967201,78,16048,4294964191,3282,160,193,395,4294966719,4294966719,4294966719
595222833,6467260,6483686,16048,1648,4294966360,4294967074,314,4294967045,13264,7605,6821,4294967136,4294967284,116,16056,4294964087,3311,319,265,461,4294966727,4294966727,4294966727
595228839,6467230,6483675,16126,1661,4294966490,4294967174,39,4294967109,13296,7677,6792,4294967137,70,107,16109,4294964119,3273,423,295,470,4294966721,4294966721,4294966721
595234860,6467212,6483344,16152,1779,4294966584,7,4294967102,4294967200,13243,7685,6759,4294967009,184,121,16097,4294964057,3479,455,318,465,4294966708,4294966708,4294966708
595240845,6466971,6483182,16234,1900,4294966569,109,4294966927,4294967275,13224,7665,6735,4294966935,231,136,16075,4294964001,3615,567,294,436,4294966717,4294966717,4294966717
595246849,6467532,6483971,16300,1959,4294966476,153,4294966866,81,13233,7631,6688,4294966877,256,119,16078,4294964007,3628,651,221,401,4294966713,4294966713,4294966713
595252839,6467207,6483606,16322,1917,4294966448,123,4294966808,155,13306,7699,6717,4294966796,249,118,16121,4294964073,3712,745,199,360,4294966722,4294966722,4294966722
595258861,6467201,6483566,16353,1952,4294966247,76,4294966828,209,13339,7679,6738,4294966703,233,118,16111,4294964063,3692,750,166,315,4294966707,4294966707,4294966707
595264857,6467876,6484200,16355,1871,4294966157,22,4294966917,217,13361,7614,6798,4294966647,233,121,16063,4294964095,3634,680,130,296,4294966712,4294966712,4294966712
595270853,6468177,6484290,16421,1807,4294966063,4,4294967036,169,13353,7602,6795,4294966644,198,114,16020,4294964101,3632,572,150,301,4294966715,4294966715,4294966715
595276847,6468066,6484107,16402,1783,4294966022,5,4294967163,137,13395,7547,6851,4294966626,189,103,16082,4294964150,3583,488,171,280,4294966721,4294966721,4294966721
595282851,6467891,6484149,16367,1674,4294966001,4294967278,4294967200,78,13414,7486,6768,4294966696,227,82,16109,4294964137,3615,402,202,288,4294966717,4294966717,4294966717
595288842,6467986,6484214,16334,1668,4294966010,4294967262,4294967241,8,13350,7438,6904,4294966738,232,37,16032,4294964152,3642,246,242,311,4294966719,4294966719,4294966719
595294836,6467780,6483741,16306,1687,4294966048,4294967251,4294967278,4294967256,13332,7357,6885,4294966791,265,4294967293,16099,4294964138,3591,185,297,294,4294966724,4294966724,4294966724
595300841,6467634,6483361,16271,1707,4294966048,4294967234,9,4294967231,13339,7347,6907,4294966833,263,4294967240,16077,4294964138,3660,190,317,303,4294966720,4294966720,4294966720
595306849,6467583,6483427,16227,1700,4294966087,4294967217,51,4294967183,13335,7403,6934,4294966875,330,4294967234,16069,4294964108,3705,242,332,289,4294966720,4294966720,4294966720
595312846,6467431,6483316,16161,1714,4294966021,4294967203,66,4294967177,13280,7438,6823,4294966901,359,4294967199,16057,4294964100,3707,243,342,275,4294966722,4294966722,4294966722
595318839,6466905,6482565,16163,1762,4294966051,4294967155,39,4294967182,13292,7488,6764,4294966893,372,4294967205,16035,4294964138,3653,277,325,236,4294966725,4294966725,4294966725
595324845,6466978,6482985,16155,1759,4294966247,4294967130,52,4294967176,13311,7450,6831,4294966941,387,4294967203,16037,4294964036,3585,404,284,218,4294966716,4294966716,4294966716
595330855,6466779,6482731,16132,1761,4294966272,4294967103,10,4294967182,13328,7385,6858,4294967071,394,4294967179,16024,4294964099,3554,463,308,165,4294966712,4294966712,4294966712
595336856,6466292,6482178,16123,1739,4294966336,4294967042,4294967244,4294967188,13328,7432,6903,4294967226,418,4294967179,16054,4294964155,3621,276,450,208,4294966714,4294966714,4294966714
595342842,6466649,6482481,16190,1709,4294966317,4294967056,4294967123,4294967208,13354,7465,6866,4294967242,379,4294967182,16012,4294964109,3730,245,456,247,4294966721,4294966721,4294966721
595348865,6466546,6482429,16256,1704,4294966313,4294967080,4294967036,4294967218,13430,7538,6917,4294967167,325,4294967185,15998,4294963999,3689,330,319,225,4294966710,4294966710,4294966710
595354862,6466013,6481742,16296,1747,4294966270,4294967210,4294967020,4294967208,13382,7546,6999,4294967150,261,4294967244,15996,4294964031,3780,387,241,215,4294966706,4294966706,4294966706
595360845,6466179,6481770,16262,1807,4294966224,4294967281,4294967056,4294967219,13418,7489,7001,4294967216,200,4294967274,15996,4294964053,3675,377,266,217,4294966721,4294966721,4294966721
595366853,6466357,6482241,16285,1814,4294966104,4,4294967094,4294967269,13399,7525,7009,2,176,27,16013,4294964133,3727,413,256,241,4294966717,4294966717,4294966717
595372835,6465767,6481330,16286,1866,4294966107,4294967256,4294967156,21,13336,7512,6927,4294967269,138,77,15991,4294964074,3646,409,230,254,4294966727,4294966727,4294966727
595378845,6465523,6480934,16304,1903,4294966115,4294967196,4294967192,23,13345,7517,6953,4294967251,133,156,16018,4294964043,3620,369,195,269,4294966721,4294966721,4294966721
595384848,6466017,6481648,16239,1852,4294966064,4294967136,4294967231,48,13382,7512,6910,4294967206,144,192,16019,4294964007,3676,383,165,269,4294966718,4294966718,4294966718
595390838,6466204,6482071,16211,1746,4294966152,4294967110,4294967269,23,13329,7474,6995,4294967150,122,189,16052,4294964081,3740,280,188,279,4294966725,4294966725,4294966725
595396833,6465782,6481471,16209,1724,4294966120,4294967102,22,4294967269,13346,7401,7043,4294967158,107,219,16087,4294964062,3712,234,193,277,4294966728,4294966728,4294966728
595402850,6465861,6481564,16165,1696,4294966179,4294967074,40,4294967225,13324,7460,7037,27,39,210,16118,4294964039,3791,184,159,274,4294966719,4294966719,4294966719
595408837,6466016,6482207,16140,1725,4294966304,4294967099,23,4294967177,13321,7492,6902,39,4294967284,228,16111,4294964130,3637,172,173,294,4294966726,4294966726,4294966726
595414841,6466119,6482106,16207,1742,4294966275,4294967073,22,4294967217,13365,7518,7018,90,4294967233,217,16099,4294964104,3586,167,166,321,4294966721,4294966721,4294966721
595420828,6466336,6482463,16219,1756,4294966222,4294967089,4294967277,4294967213,13387,7518,6938,101,4294967168,198,16167,4294964130,3596,205,175,305,4294966730,4294966730,4294966730
595426845,6466317,6482492,16171,1770,4294966320,4294967106,4294967165,4294967269,13362,7567,7052,57,4294967147,250,16106,4294964125,3610,178,204,348,4294966719,4294966719,4294966719
595432845,6466277,6482215,16206,1699,4294966354,4294967155,4294967067,4294967280,13353,7593,7009,53,4294967137,233,16131,4294964152,3633,199,258,356,4294966717,4294966717,4294966717
595438844,6466030,6481804,16255,1755,4294966370,4294967180,4294966986,13,13433,7573,6996,13,4294967171,222,16111,4294964094,3677,257,266,364,4294966720,4294966720,4294966720
595444843,6466417,6482194,16369,1754,4294966281,4294967161,4294966927,15,13389,7502,6860,4294967278,4294967212,212,16135,4294964141,3646,334,258,371,4294966718,4294966718,4294966718
595450849,6466590,6482271,16376,1789,4294966232,4294967130,4294966901,45,13306,7525,6858,4294967235,4294967264,196,16110,4294964173,3649,379,275,360,4294966717,4294966717,4294966717
595456855,6466651,6482209,16435,1754,4294966290,4294967117,4294966913,24,13320,7511,6834,4294967201,4294967282,167,16051,4294964168,3696,415,306,352,4294966712,4294966712,4294966712
595462842,6466202,6481731,16340,1713,4294966200,4294967100,4294966903,50,13311,7500,6887,4294967204,47,136,16033,4294964184,3640,377,358,387,4294966717,4294966717,4294966717
595468859,6466272,6482031,16307,1692,4294966162,4294967120,4294966916,56,13321,7457,6832,4294967266,122,122,16012,4294964211,3676,311,409,364,4294966710,4294966710,4294966710
595474857,6466277,6481771,16319,1777,4294966172,4294967123,4294966926,53,13267,7416,6929,10,200,81,15939,4294964228,3572,290,425,350,4294966713,4294966713,4294966713
595480837,6466366,6481761,16321,1750,4294966156,4294967162,4294966985,49,13284,7449,6831,35,248,62,15986,4294964151,3681,236,435,355,4294966725,4294966725,4294966725
595486849,6466690,6482379,16343,1810,4294966143,4294967179,4294966998,56,13214,7442,6809,118,309,36,15975,4294964194,3688,247,413,341,4294966717,4294966717,4294966717
595492866,6466479,6482050,16251,1780,4294966117,4294967168,4294967034,57,13241,7368,6791,214,310,4294967293,15961,4294964188,3666,206,371,330,4294966706,4294966706,4294966706
595498850,6466340,6481920,16230,1858,4294966079,4294967144,4294967052,68,13228,7358,6819,303,339,4294967283,15985,4294964147,3681,176,351,294,4294966712,4294966712,4294966712
595504850,6466724,6482555,16136,1835,4294966155,4294967160,4294967085,53,13272,7273,6834,389,361,4294967257,15983,4294964099,3613,154,331,297,4294966719,4294966719,4294966719
595510857,6466614,6482527,16158,1877,4294966127,4294967119,4294967109,35,13303,7284,6702,450,351,4294967253,15983,4294964133,3640,108,312,289,4294966710,4294966710,4294966710
595516844,6466165,6482035,16148,1785,4294966140,4294967076,4294967142,48,13291,7321,6824,475,340,4294967233,15999,4294964064,3699,63,298,263,4294966717,4294966717,4294966717
595522837,6466372,6482593,16064,1789,4294966160,4294967059,4294967197,54,13325,7326,6896,543,335,4294967215,15978,4294964102,3740,49,285,248,4294966722,4294966722,4294966722
595528836,6466246,6482518,16144,1771,4294966122,4294967014,4294967185,61,13360,7381,6880,583,311,4294967191,15963,4294964039,3698,57,252,243,4294966725,4294966725,4294966725
595534848,6466232,6482397,16125,1721,4294966183,4294966962,4294967152,40,13401,7305,6969,687,283,4294967182,16022,4294964057,3707,53,250,262,4294966715,4294966715,4294966715
595540851,6465836,6481872,16101,1716,4294966130,4294966973,4294967143,18,13404,7399,6942,801,252,4294967214,15973,4294964023,3802,65,229,253,4294966714,4294966714,4294966714
595546870,6466112,6482154,16156,1616,4294966156,4294966977,4294967140,5,13378,7414,6927,856,246,4294967253,15946,4294963973,3771,113,236,261,4294966701,4294966701,4294966701
595552848,6466255,6482130,16205,1666,4294966214,4294967001,4294967117,4294967282,13385,7407,6896,871,243,4294967280,15996,4294963994,3784,110,231,274,4294966714,4294966714,4294966714
595558845,6465781,6481404,16250,1648,4294966236,4294967029,4294967057,4294967289,13360,7477,6817,936,228,4,16009,4294964032,3756,124,247,258,4294966722,4294966722,4294966722
595564836,6466054,6481858,16273,1667,4294966216,4294967001,4294967029,4294967269,13413,7581,6706,870,275,58,15984,4294964000,3761,147,263,247,4294966723,4294966723,4294966723
595570857,6466384,6482068,16312,1677,4294966219,4294966993,4294967005,4294967284,13431,7515,6679,831,306,61,16008,4294963915,3761,186,287,249,4294966712,4294966712,4294966712
595576868,6466107,6481670,16275,1599,4294966151,4294967000,4294966961,4294967280,13400,7476,6642,787,332,78,16052,4294963985,3784,230,247,275,4294966703,4294966703,4294966703
595582828,6466233,6481971,16288,1601,4294966176,4294967014,4294966948,4294967261,13435,7413,6650,805,339,65,16107,4294964028,3707,287,244,269,4294966731,4294966731,4294966731
595588856,6466006,6481765,16253,1661,4294966235,4294967024,4294966928,4294967264,13463,7441,6631,810,348,47,16044,4294964035,3713,312,298,281,4294966713,4294966713,4294966713
595594871,6465728,6480986,16358,1704,4294966234,4294967000,4294966915,4294967263,13536,7427,6611,846,340,28,16039,4294964008,3674,305,272,283,4294966701,4294966701,4294966701
595600835,6466073,6481425,16374,1685,4294966103,4294966987,4294966930,4294967275,13486,7433,6750,845,328,23,16049,4294964041,3695,267,319,293,4294966725,4294966725,4294966725
595606838,6466342,6481834,16332,1694,4294966138,4294966978,4294966973,4294967289,13485,7472,6854,851,325,5,16039,4294964017,3675,317,349,308,4294966725,4294966725,4294966725
595612860,6466046,6481429,16316,1654,4294966127,4294966977,4294966991,13,13488,7466,6973,863,272,24,16031,4294964034,3631,344,345,322,4294966709,4294966709,4294966709
595618844,6465534,6480655,16271,1632,4294966135,4294966998,4294967010,0,13499,7497,6957,866,253,45,16080,4294963991,3619,367,348,320,4294966719,4294966719,4294966719
595624826,6465637,6480710,16270,1615,4294966132,4294967040,4294967003,18,13474,7522,6950,780,257,61,16068,4294963944,3715,361,322,338,4294966731,4294966731,4294966731
595630838,6465633,6480924,16312,1572,4294966185,4294967055,4294967010,4294967283,13358,7574,6848,719,242,84,16047,4294963996,3718,379,363,346,4294966722,4294966722,4294966722
595636848,6465118,6480550,16318,1561,4294966181,4294967118,4294967025,4294967270,13389,7523,6908,675,196,116,15984,4294963949,3697,407,327,365,4294966718,4294966718,4294966718
595642851,6465055,6481572,16277,1619,4294966156,4294967110,4294967038,4294967258,13412,7496,6855,661,192,148,16057,4294963974,3757,365,316,366,4294966715,4294966715,4294966715
595648857,6466018,6482116,16218,1630,4294966165,4294967083,4294967045,4294967245,13437,7573,6833,677,203,172,16018,4294964008,3736,323,334,372,4294966713,4294966713,4294966713
595654841,6467826,6483313,16181,1568,4294966113,4294967091,4294967042,4294967236,13360,7536,6792,675,199,171,16040,4294963974,3766,314,356,352,4294966719,4294966719,4294966719
595660847,6470695,6484926,16199,1570,4294966092,4294967106,4294967041,4294967250,13355,7497,6833,697,227,179,15957,4294963973,3742,340,317,333,4294966714,4294966714,4294966714
595666850,6472496,6488039,16251,1565,4294966158,4294967157,4294967034,4294967256,13399,7597,6857,730,196,221,15925,4294963967,3620,338,273,368,4294966715,4294966715,4294966715
595672850,6468615,6483732,16154,1573,4294966103,4294967149,4294967028,4294967259,13360,7514,6775,738,227,246,16000,4294964052,3647,393,302,354,4294966715,4294966715,4294966715
595678849,6466138,6480105,16164,1559,4294966197,4294967182,4294967038,4294967260,13397,7491,6794,752,266,258,15954,4294964050,3639,416,345,370,4294966715,4294966715,4294966715
595684854,6462372,6475773,16149,1592,4294966180,4294967211,4294967033,4294967287,13379,7541,6848,677,275,292,15958,4294964058,3532,496,355,394,4294966712,4294966712,4294966712
595690831,6461441,6476730,16122,1560,4294966296,4294967199,4294967020,8,13427,7517,6869,620,196,294,15989,4294964039,3614,463,344,396,4294966729,4294966729,4294966729
595696843,6462054,6477707,16100,1519,4294966278,4294967146,4294966963,39,13351,7550,6740,610,117,269,16012,4294964024,3822,386,378,410,4294966723,4294966723,4294966723
595702850,6463849,6479398,16274,1564,4294966370,4294967086,4294966885,59,13281,7561,6455,517,23,283,16033,4294964053,3790,319,356,472,4294966717,4294966717,4294966717
595708851,6465298,6481185,16327,1554,4294966207,4294967076,4294966772,64,13378,7583,6562,426,30,292,16047,4294963967,3562,366,324,480,4294966715,4294966715,4294966715
595714855,6465573,6481053,16397,1699,4294966103,4294967166,4294966700,110,13374,7446,6959,407,126,310,16003,4294964017,3563,449,336,448,4294966713,4294966713,4294966713
595720836,6465688,6481155,16366,1771,4294965944,4294967294,4294966743,163,13399,7513,6791,599,114,270,16046,4294963990,3665,421,283,466,4294966725,4294966725,4294966725
595726851,6466132,6481664,16365,1709,4294965834,89,4294966885,153,13422,7570,6531,532,153,233,16044,4294963999,3729,400,231,479,4294966711,4294966711,4294966711
595732875,6466026,6481319,16297,1606,4294965875,109,4294967085,110,13532,7453,6665,573,242,263,16016,4294963914,3673,462,207,474,4294966700,4294966700,4294966700
595738837,6465950,6480812,16267,1629,4294966087,34,4294967274,32,13534,7387,6895,632,239,236,16043,4294963904,3538,443,260,468,4294966723,4294966723,4294966723
595744844,6466295,6481503,16222,1596,4294966340,4294967230,39,4294967259,13474,7416,6867,544,182,223,15985,4294963889,3558,486,303,478,4294966719,4294966719,4294966719
595750846,6466232,6481241,16198,1595,4294966346,4294967121,4294967277,4294967181,13509,7454,6997,458,97,212,15985,4294963853,3738,621,285,437,4294966717,4294966717,4294966717
595756846,6466126,6481052,16224,1671,4294966398,4294967017,4294967092,4294967156,13474,7510,7163,328,7,246,16011,4294963841,4035,772,182,368,4294966719,4294966719,4294966719
595762844,6466365,6481440,16295,1720,4294966391,4294967008,4294966855,4294967191,13411,7541,7023,380,4294967181,312,16018,4294963902,4041,819,128,367,4294966719,4294966719,4294966719
595768838,6466557,6482056,16278,1758,4294966361,4294967144,4294966694,4294967233,13393,7506,6802,250,4294967099,402,15894,4294964023,3825,915,113,298,4294966724,4294966724,4294966724
595774844,6466496,6481816,16307,1798,4294966179,4294967283,4294966612,21,13371,7417,6580,122,4294967061,410,15833,4294964055,3743,861,112,338,4294966717,4294966717,4294966717
595780845,6466768,6481864,16271,1865,4294965754,47,4294966698,86,13381,7389,6630,85,4294967014,368,15922,4294964075,3757,663,189,415,4294966719,4294966719,4294966719
595786849,6466813,6482365,16265,1727,4294965642,74,4294966891,145,13377,7388,6725,36,4294967047,347,16002,4294963942,3862,374,278,444,4294966719,4294966719,4294966719
595792847,6467010,6482428,16151,1691,4294965546,131,4294967207,122,13335,7307,6812,49,4294967103,306,16009,4294963861,3907,209,256,478,4294966716,4294966716,4294966716
595798839,6466882,6482232,16153,1596,4294965611,164,241,69,13392,7394,6838,250,4294967153,269,16050,4294963868,3928,113,203,454,4294966719,4294966719,4294966719
595804838,6467518,6483187,16047,1628,4294965640,139,460,34,13358,7289,6788,406,4294967220,200,16085,4294963969,3829,68,158,432,4294966725,4294966725,4294966725
595810862,6467271,6482626,15966,1557,4294965926,55,530,4294967277,13333,7433,6726,662,4294967275,177,16068,4294964065,3915,109,142,477,4294966708,4294966708,4294966708
595816843,6467103,6482196,16007,1521,4294966082,4294967263,464,4294967271,13314,7538,6613,747,98,112,16075,4294964066,3684,281,103,474,4294966720,4294966720,4294966720
595822846,6467098,6482702,16062,1580,4294966251,4294967221,242,4,13353,7513,6645,866,179,140,16112,4294964031,3491,476,142,473,4294966721,4294966721,4294966721
595828827,6466963,6482707,16149,1665,4294966422,4294967234,8,43,13303,7552,6554,859,292,119,16136,4294963975,3525,587,197,468,4294966730,4294966730,4294966730
595834843,6467043,6482608,16196,1824,4294966581,4294967276,4294967013,67,13417,7563,6540,823,375,123,16161,4294963957,3499,632,232,460,4294966722,4294966722,4294966722
595840860,6467043,6482726,16320,1941,4294966559,2,4294966709,115,13367,7559,6568,792,415,136,16218,4294963893,3530,665,246,438,4294966711,4294966711,4294966711
595846852,6467357,6483262,16328,1941,4294966620,5,4294966536,187,13457,7553,6658,760,435,137,16180,4294963883,3623,731,248,404,4294966715,4294966715,4294966715
595852833,6467575,6483136,16450,2001,4294966450,4294967284,4294966477,222,13457,7574,6684,717,411,155,16131,4294963875,3752,717,186,375,4294966728,4294966728,4294966728
595858840,6467376,6483081,16433,2019,4294966249,4294967271,4294966508,278,13514,7587,6702,589,381,161,16115,4294963900,3800,715,135,337,4294966723,4294966723,4294966723
595864843,6467871,6483832,16456,1933,4294966156,4294967276,4294966591,267,13561,7531,6618,433,325,163,16075,4294963952,3689,686,140,312,4294966720,4294966720,4294966720
595870842,6467921,6483877,16463,1869,4294966064,4294967273,4294966739,263,13633,7521,6550,322,291,168,16058,4294963945,3668,632,170,288,4294966718,4294966718,4294966718
595876845,6467743,6483269,16412,1804,4294965987,4294967218,4294966882,243,13570,7377,6599,346,254,180,16027,4294964009,3572,517,213,291,4294966716,4294966716,4294966716
595882841,6467645,6483155,16470,1685,4294966019,4294967124,4294966998,171,13618,7333,6565,225,257,187,16087,4294963938,3590,423,289,301,4294966721,4294966721,4294966721
595888837,6467761,6483151,16378,1596,4294965983,4294967040,4294967048,138,13507,7383,6738,251,224,166,15944,4294963951,3659,431,358,277,4294966726,4294966726,4294966726
595894853,6467284,6482431,16303,1556,4294966042,4294967010,4294967055,50,13498,7355,6831,227,206,165,15978,4294963971,3722,436,384,303,4294966713,4294966713,4294966713
595900865,6467323,6482343,16254,1475,4294965930,4294966985,4294967011,4294967268,13473,7329,6815,342,199,167,16001,4294963933,3667,405,417,298,4294966706,4294966706,4294966706
595906852,6467579,6482733,16315,1475,4294965991,4294966967,4294967023,4294967179,13487,7387,6877,291,209,163,15956,4294963924,3712,408,485,318,4294966717,4294966717,4294966717
595912850,6467578,6482881,16170,1515,4294966066,4294967005,4294967137,4294967119,13411,7324,6837,371,220,168,15968,4294963918,3820,481,507,297,4294966719,4294966719,4294966719
595918863,6467084,6482208,16125,1584,4294966079,4294967001,4294967170,4294967098,13433,7371,6692,455,240,166,15958,4294963943,3771,560,513,316,4294966706,4294966706,4294966706
595924835,6466981,6482262,16119,1584,4294966117,4294966979,4294967167,4294967089,13399,7378,6626,541,297,173,16003,4294963924,3720,558,528,333,4294966726,4294966726,4294966726
595930847,6467018,6482350,16041,1623,4294966223,4294966964,4294967141,4294967130,13379,7343,6700,671,354,183,15906,4294963995,3709,462,549,339,4294966715,4294966715,4294966715
595936859,6466582,6481410,16128,1581,4294966227,4294966990,4294967088,4294967150,13376,7317,6787,811,382,177,15927,4294963961,3683,431,566,349,4294966711,4294966711,4294966711
595942841,6466793,6481737,16116,1639,4294966276,4294967030,4294967011,4294967167,13434,7320,6599,883,417,181,15923,4294963972,3771,403,598,360,4294966720,4294966720,4294966720
595948855,6466763,6481845,16130,1683,4294966220,4294967064,4294966915,4294967161,13420,7381,6593,905,401,176,15885,4294963893,3755,388,542,371,4294966716,4294966716,4294966716
595954855,6466108,6481006,16127,1662,4294966232,4294967073,4294966860,4294967217,13432,7430,6582,777,355,168,15851,4294963897,3840,391,473,340,4294966710,4294966710,4294966710
595960860,6466295,6481203,16115,1716,4294966130,4294967148,4294966801,4294967253,13417,7435,6596,616,340,191,15923,4294963918,3826,406,391,321,4294966708,4294966708,4294966708
595966846,6466287,6481301,16171,1767,4294966162,4294967124,4294966776,4,13421,7414,6676,550,244,213,15951,4294963961,3696,366,381,307,4294966716,4294966716,4294966716
595972844,6465935,6480668,16153,1727,4294966018,4294967092,4294966798,37,13361,7478,6680,530,198,220,15948,4294963931,3726,278,397,311,4294966720,4294966720,4294966720
595978846,6465774,6480506,16247,1732,4294966046,4294967048,4294966815,42,13407,7381,6654,496,203,249,15913,4294963899,3772,248,363,321,4294966715,4294966715,4294966715
595984852,6466010,6480969,16223,1686,4294966031,4294967028,4294966855,67,13360,7376,6645,491,175,200,15938,4294963920,3779,222,329,312,4294966719,4294966719,4294966719
595990843,6466474,6481617,16269,1617,4294966034,4294967141,4294966846,55,13390,7370,6659,410,208,190,15958,4294963845,3845,220,303,314,4294966718,4294966718,4294966718
595996839,6466258,6480974,16205,1564,4294966001,4294967095,4294966883,22,13451,7392,6734,429,214,143,15970,4294963840,3893,226,356,253,4294966725,4294966725,4294966725
596002851,6466097,6480928,16239,1477,4294966010,4294967087,4294966941,4294967274,13507,7378,6677,511,192,133,15946,4294963884,3902,228,339,272,4294966716,4294966716,4294966716
596008844,6465866,6480964,16260,1552,4294966014,4294967131,4294967036,4294967249,13504,7431,6705,585,188,85,16036,4294963889,3881,226,332,308,4294966720,4294966720,4294966720
596014855,6465335,6480160,16333,1491,4294966020,4294967193,4294967070,4294967230,13501,7453,6627,567,224,71,16008,4294963879,3957,251,321,341,4294966714,4294966714,4294966714
596020840,6465833,6480797,16310,1574,4294966016,4294967158,4294967110,4294967231,13525,7589,6693,548,243,61,16033,4294963840,3921,324,272,344,4294966722,4294966722,4294966722
596026851,6466115,6481341,16295,1662,4294966105,4294967167,4294967076,4294967266,13532,7470,6636,523,293,92,16034,4294963806,3841,491,216,342,4294966714,4294966714,4294966714
596032845,6465689,6480746,16343,1616,4294966099,4294967149,4294967067,4,13532,7535,6645,637,348,58,16023,4294963846,3832,515,235,323,4294966717,4294966717,4294966717
596038858,6465498,6480233,16317,1627,4294966177,4294967197,4294967016,25,13533,7503,6567,629,387,72,15977,4294963824,3805,542,238,327,4294966710,4294966710,4294966710
596044838,6465637,6480574,16333,1598,4294966189,4294967206,4294966966,38,13578,7566,6577,563,426,74,15980,4294963830,3810,617,241,301,4294966722,4294966722,4294966722
596050836,6465460,6480141,16312,1564,4294966209,4294967188,4294966915,52,13592,7486,6601,445,423,103,16021,4294963850,3776,643,241,310,4294966721,4294966721,4294966721
596056865,6465370,6479926,16241,1559,4294966172,4294967173,4294966873,98,13556,7495,6568,372,429,94,15941,4294963836,3811,663,289,275,4294966706,4294966706,4294966706
596062856,6465628,6480482,16338,1544,4294966144,4294967140,4294966879,67,13548,7436,6665,312,415,135,15941,4294963852,3754,638,340,312,4294966711,4294966711,4294966711
596068847,6465668,6480530,16317,1468,4294966097,4294967160,4294966820,67,13487,7402,6766,290,421,164,15927,4294963908,3764,568,335,313,4294966716,4294966716,4294966716
596074846,6465691,6480406,16283,1547,4294965941,4294967212,4294966874,38,13575,7406,6591,280,406,140,15916,4294963894,3776,480,392,337,4294966716,4294966716,4294966716
596080839,6465873,6480543,16202,1502,4294965983,4294967291,4294966863,4294967287,13469,7391,6648,255,392,184,15947,4294963880,3815,454,441,347,4294966721,4294966721,4294966721
596086842,6466153,6481066,16240,1584,4294965964,32,4294966947,4294967234,13462,7386,6548,179,410,203,15921,4294963874,3886,424,473,361,4294966720,4294966720,4294966720
596092849,6465673,6480532,16190,1552,4294965939,48,4294966987,4294967203,13433,7437,6577,174,441,226,15909,4294963838,3872,416,472,348,4294966718,4294966718,4294966718
596098837,6465345,6480031,16175,1594,4294965976,40,4294967040,4294967185,13511,7391,6755,217,420,235,15950,4294963858,3777,430,475,344,4294966725,4294966725,4294966725
596104855,6466052,6481062,16155,1568,4294965985,40,4294967048,4294967206,13428,7410,6697,322,412,235,15983,4294963847,3914,428,469,365,4294966710,4294966710,4294966710
596110838,6465824,6480812,16166,1625,4294965948,64,4294967040,4294967189,13415,7385,6776,332,378,226,15922,4294963839,3786,450,423,364,4294966722,4294966722,4294966722
596116840,6465464,6480370,16206,1599,4294965911,23,4294967024,4294967188,13421,7374,6728,319,366,264,15844,4294963873,3849,414,417,361,4294966719,4294966719,4294966719
596122846,6465645,6480886,16176,1648,4294966086,71,4294967007,4294967201,13378,7384,6801,356,332,290,15947,4294963905,3849,385,453,393,4294966714,4294966714,4294966714
596128843,6465368,6480334,16177,1632,4294966075,25,4294966986,4294967228,13373,7447,6813,344,347,246,15899,4294963876,3835,419,464,373,4294966722,4294966722,4294966722
596134832,6465070,6480076,16148,1660,4294966065,34,4294966982,4294967229,13359,7375,6722,237,351,230,15909,4294963865,3798,444,470,362,4294966726,4294966726,4294966726
596140832,6464602,6479448,16156,1646,4294966096,63,4294966998,4294967236,13337,7332,6755,187,371,228,15982,4294963849,3820,458,478,386,4294966728,4294966728,4294966728
596146856,6465184,6480069,16188,1640,4294966119,118,4294967005,4294967222,13319,7340,6778,194,379,196,15901,4294963840,3834,422,443,378,4294966716,4294966716,4294966716
596152853,6465436,6480461,16181,1646,4294966082,133,4294967018,4294967233,13398,7322,6711,247,409,149,15882,4294963861,3883,416,407,379,4294966711,4294966711,4294966711
596158846,6465002,6479884,16198,1657,4294966069,147,4294967006,4294967255,13353,7346,6769,301,391,115,15921,4294963903,3883,366,390,384,4294966720,4294966720,4294966720
596164842,6465489,6480344,16224,1743,4294966067,167,4294966964,4294967275,13393,7376,6804,291,391,78,15954,4294963893,3844,313,373,363,4294966723,4294966723,4294966723
596170842,6465608,6480284,16157,1704,4294965945,157,4294966994,4294967283,13351,7354,6789,298,371,45,15950,4294963886,3904,384,295,321,4294966721,4294966721,4294966721
596176841,6465210,6479477,16203,1761,4294966039,139,4294967021,0,13375,7360,6700,353,355,36,15926,4294963903,3893,404,258,347,4294966721,4294966721,4294966721
596182840,6465143,6479568,16239,1745,4294965937,136,4294967058,4294967294,13443,7394,6702,387,351,26,15929,4294963961,3928,399,261,304,4294966722,4294966722,4294966722
596188852,6465226,6479787,16197,1750,4294965970,119,4294967078,4294967287,13476,7477,6694,351,355,25,15990,4294963893,3902,447,251,283,4294966714,4294966714,4294966714
596194840,6465064,6479171,16251,1742,4294965993,71,4294967058,18,13481,7441,6569,308,378,27,15974,4294963933,3967,455,225,280,4294966720,4294966720,4294966720
596200842,6465070,6479239,16298,1709,4294966035,47,4294967037,13,13517,7435,6521,289,369,36,15896,4294963881,3900,437,213,301,4294966720,4294966720,4294966720
596206842,6465340,6479666,16251,1705,4294965937,4294967284,4294967068,4294967291,13500,7455,6558,278,376,35,15973,4294963830,3874,415,224,278,4294966720,4294966720,4294966720
596212841,6465172,6479374,16263,1714,4294965973,4294967245,4294967029,4294967282,13530,7417,6631,238,391,48,16032,4294963884,3948,436,248,272,4294966724,4294966724,4294966724
596218831,6465027,6479108,16268,1597,4294965975,4294967155,4294967021,4294967260,13535,7359,6666,254,384,42,15989,4294963848,3873,453,250,259,4294966729,4294966729,4294966729
596224847,6465464,6479658,16264,1564,4294966025,4294967173,4294967024,4294967242,13535,7318,6705,268,387,66,15962,4294963876,3869,473,264,268,4294966719,4294966719,4294966719
596230854,6465361,6479739,16287,1623,4294965973,4294967183,4294966993,4294967220,13553,7379,6704,293,380,31,15943,4294963840,3792,507,292,251,4294966715,4294966715,4294966715
596236851,6465091,6480000,16256,1519,4294966021,4294967153,4294966993,4294967217,13477,7355,6797,256,343,29,15903,4294963812,3857,558,311,259,4294966715,4294966715,4294966715
596242858,6465439,6480713,16262,1680,4294965963,4294967259,4294966974,4294967184,13448,7341,6717,255,299,24,15944,4294963822,3860,620,294,257,4294966712,4294966712,4294966712
596248855,6466155,6481323,16301,1624,4294966009,4294967203,4294967050,4294967212,13486,7421,6724,360,308,54,15931,4294963824,3895,579,294,229,4294966717,4294966717,4294966717
596254843,6468366,6482430,16197,1604,4294965898,4294967277,4294967050,4294967189,13471,7400,6674,464,309,74,15888,4294963885,3873,526,267,271,4294966723,4294966723,4294966723
596260845,6470676,6485197,16232,1555,4294965939,4294967222,4294967107,4294967201,13471,7396,6705,500,314,72,15942,4294963869,3916,407,274,303,4294966718,4294966718,4294966718
596266841,6470467,6485599,16228,1622,4294965998,4294967292,4294967142,4294967208,13485,7405,6637,459,329,80,15947,4294963854,3938,358,286,322,4294966723,4294966723,4294966723
596272847,6465539,6478497,16138,1601,4294965945,4294967245,4294967126,4294967219,13536,7397,6596,490,357,98,15932,4294963867,3786,331,305,330,4294966718,4294966718,4294966718
596278869,6463108,6473080,16200,1613,4294965985,4294967229,4294967121,4294967190,13527,7435,6716,541,396,133,15937,4294963892,3886,336,289,322,4294966702,4294966702,4294966702
596284842,6460628,6473498,16131,1615,4294966040,4294967224,4294967174,4294967204,13525,7468,6844,607,356,141,15961,4294963853,3907,372,288,328,4294966720,4294966720,4294966720
596290847,6460878,6476054,16155,1542,4294966088,4294967222,4294967133,4294967211,13497,7384,6817,582,247,139,15986,4294963800,3948,413,268,338,4294966718,4294966718,4294966718
596296832,6462335,6476670,16163,1596,4294966161,4294967175,4294966989,4294967189,13459,7428,6706,566,115,145,15973,4294963847,3979,389,257,352,4294966728,4294966728,4294966728
596302846,6463754,6478431,16222,1593,4294966082,4294967155,4294966827,4294967182,13407,7511,6481,407,22,162,15943,4294963898,3889,375,296,336,4294966721,4294966721,4294966721
596308847,6464613,6479529,16300,1687,4294965912,4294967229,4294966749,4294967221,13332,7424,6845,259,83,173,15935,4294963895,3676,404,346,318,4294966716,4294966716,4294966716
596314838,6464839,6479183,16296,1718,4294965830,4,4294966779,4294967261,13425,7417,6933,282,139,167,15963,4294963878,3690,460,374,329,4294966723,4294966723,4294966723
596320844,6465077,6479348,16272,1624,4294965752,30,4294966899,4294967241,13395,7495,6526,250,141,156,15977,4294963901,3894,408,371,321,4294966717,4294966717,4294966717
596326865,6465363,6480001,16196,1576,4294965817,4294967239,4294967061,4294967222,13445,7437,6490,231,193,125,15885,4294963892,3850,411,339,338,4294966707,4294966707,4294966707
596332839,6465430,6479624,16126,1534,4294965987,4294967200,4294967200,4294967184,13514,7302,6771,331,212,107,15912,4294963873,3678,460,364,325,4294966722,4294966722,4294966722
596338850,6465344,6479360,16112,1443,4294966169,4294967216,4294967228,4294967118,13471,7397,6668,285,212,88,15906,4294963894,3629,417,391,333,4294966715,4294966715,4294966715
596344846,6465367,6479745,16141,1452,4294966251,4294967211,4294967154,4294967066,13514,7378,6723,285,209,76,15869,4294963935,3688,498,381,313,4294966718,4294966718,4294966718
596350868,6465257,6479461,16224,1567,4294966198,4294967186,4294966998,4294967066,13446,7420,7006,381,146,78,15873,4294963855,3946,639,379,314,4294966707,4294966707,4294966707
596356859,6465275,6479399,16289,1666,4294966081,4294967124,4294966849,4294967155,13455,7517,6839,443,53,89,15903,4294963875,4074,699,275,277,4294966712,4294966712,4294966712
596362848,6465343,6479632,16274,1682,4294965895,4294967234,4294966766,4294967200,13377,7457,6605,300,4294967230,131,15826,4294963918,3971,800,177,278,4294966714,4294966714,4294966714
596368849,6465764,6480389,16267,1730,4294965871,57,4294966755,4294967260,13444,7512,6559,132,4294967156,186,15810,4294963913,3985,789,151,255,4294966717,4294966717,4294966717
596374846,6465434,6479892,16307,1761,4294965568,102,4294966897,4294967288,13474,7457,6486,4294967280,4294967141,217,15848,4294963931,3942,603,135,314,4294966718,4294966718,4294966718
596380856,6465720,6480049,16217,1668,4294965477,134,4294967145,4294967266,13486,7496,6538,35,4294967114,194,15927,4294963807,3992,352,163,327,4294966711,4294966711,4294966711
596386857,6465899,6480659,16190,1598,4294965357,121,194,4294967222,13534,7401,6664,4294967219,4294967158,180,15993,4294963780,4021,139,137,362,4294966713,4294966713,4294966713
596392852,6465822,6480334,16136,1556,4294965430,24,519,4294967160,13530,7387,6820,82,4294967169,161,16042,4294963793,4090,4294967267,148,387,4294966716,4294966716,4294966716
596398836,6465588,6480016,16069,1513,4294965628,4294967285,759,4294967095,13525,7489,6720,168,4294967218,192,16018,4294963853,4041,4294967195,69,400,4294966724,4294966724,4294966724
596404844,6466022,6480677,16065,1512,4294965801,4294967264,789,4294967040,13436,7496,6659,253,4294967249,167,15996,4294963888,3960,10,27,405,4294966719,4294966719,4294966719
596410843,6466133,6480795,16102,1522,4294965974,4294967242,616,4294967038,13369,7402,6673,453,4294967259,166,16060,4294963944,3862,168,45,434,4294966722,4294966722,4294966722
596416851,6466008,6480328,16149,1592,4294966221,4294967268,318,4294967074,13472,7485,6644,463,38,156,16050,4294963979,3662,289,72,459,4294966717,4294966717,4294966717
596422858,6466369,6481114,16221,1656,4294966323,100,24,4294967128,13512,7545,6566,410,110,135,16026,4294963881,3565,422,140,473,4294966712,4294966712,4294966712
596428835,6466416,6481197,16281,1805,4294966438,238,4294967059,4294967179,13467,7538,6584,356,179,151,16086,4294963844,3632,587,203,467,4294966727,4294966727,4294966727
596434847,6466579,6481193,16340,1873,4294966344,265,4294966832,4294967264,13488,7541,6538,252,256,128,16069,4294963844,3548,669,283,440,4294966715,4294966715,4294966715
596440847,6466522,6481313,16416,1954,4294966316,290,4294966772,20,13427,7521,6582,114,271,121,16008,4294963825,3762,703,339,390,4294966718,4294966718,4294966718
596446847,6467263,6482300,16400,1872,4294966094,271,4294966806,70,13399,7482,6598,30,311,137,16017,4294963775,3710,731,343,339,4294966715,4294966715,4294966715
596452851,6467504,6482486,16370,1840,4294966021,280,4294966902,75,13456,7325,6509,4294967239,275,97,15914,4294963833,3823,633,301,321,4294966713,4294966713,4294966713
596458849,6467062,6481894,16312,1803,4294965923,249,4294967065,67,13498,7314,6568,4294967204,297,82,15903,4294963835,3783,603,293,270,4294966719,4294966719,4294966719
596464841,6467331,6482215,16275,1729,4294965853,218,4294967224,37,13423,7260,6598,4294967203,281,58,15892,4294963952,3789,445,294,247,4294966721,4294966721,4294966721
596470851,6467112,6482032,16230,1623,4294965740,149,63,4294967268,13404,7265,6694,4294967196,304,6,15894,4294963954,3779,320,332,233,4294966714,4294966714,4294966714
596476842,6466809,6481577,16131,1499,4294965789,127,180,4294967202,13435,7200,6641,4294967182,321,4294967240,15760,4294963948,3760,226,370,257,4294966723,4294966723,4294966723
596482874,6467224,6482207,16159,1538,4294965842,89,293,4294967106,13390,7266,6592,4294967249,338,4294967217,15811,4294963963,3772,141,373,288,4294966698,4294966698,4294966698
596488840,6467226,6482140,16109,1550,4294965775,16,409,4294967020,13425,7259,6634,34,366,4294967176,15796,4294963869,3798,101,359,290,4294966719,4294966719,4294966719
596494846,6467109,6481628,16139,1562,4294965890,4294967185,455,4294967017,13403,7316,6639,141,393,4294967165,15847,4294963870,3759,221,297,270,4294966718,4294966718,4294966718
596500860,6467279,6482063,16065,1576,4294965942,4294967144,467,4294967014,13414,7338,6665,304,458,4294967135,15869,4294963878,3689,366,236,247,4294966709,4294966709,4294966709
596506851,6467505,6482437,16084,1594,4294966056,4294967184,443,4294967008,13409,7326,6634,526,472,4294967145,15891,4294963938,3764,309,254,264,4294966718,4294966718,4294966718
596512852,6467169,6481953,16073,1646,4294966071,4294967237,400,4294967030,13460,7411,6621,644,451,4294967122,15914,4294963911,3827,194,246,262,4294966711,4294966711,4294966711
596518843,6466948,6481609,16091,1666,4294966100,4294967237,320,4294967063,13539,7466,6564,534,391,4294967143,15970,4294963920,3887,166,256,265,4294966723,4294966723,4294966723
596524847,6467006,6481844,16094,1697,4294966205,12,248,4294967091,13529,7372,6613,324,326,4294967160,15925,4294963816,3792,203,236,250,4294966718,4294966718,4294966718
596530837,6466789,6481572,16145,1730,4294966271,34,139,4294967147,13613,7335,6764,181,287,4294967250,15905,4294963828,3765,265,237,224,4294966725,4294966725,4294966725
596536832,6466505,6480885,16284,1728,4294966131,4,66,4294967159,13525,7357,6870,178,226,4294967272,15902,4294963873,3843,206,283,254,4294966729,4294966729,4294966729
596542861,6466529,6481066,16273,1698,4294966153,4294967228,35,4294967167,13480,7363,6790,223,188,4294967243,15887,4294963894,3852,186,311,239,4294966709,4294966709,4294966709
596548839,6466219,6480997,16277,1725,4294966090,4294967213,4294967289,4294967200,13498,7415,6799,215,124,4294967271,15956,4294963841,3889,145,313,245,4294966719,4294966719,4294966719
596554832,6465651,6480115,16304,1761,4294966098,4294967293,4294967259,4294967191,13515,7438,6763,136,63,4294967262,16035,4294963868,3943,120,304,241,4294966728,4294966728,4294966728
596560850,6465433,6479910,16277,1784,4294966108,10,4294967244,4294967201,13519,7434,6685,216,9,4294967253,16034,4294963930,3874,68,334,253,4294966712,4294966712,4294966712
596566855,6465484,6480148,16249,1788,4294966083,4294967286,30,4294967197,13529,7412,6703,307,4294967295,4294967268,15967,4294963971,3833,10,357,282,4294966712,4294966712,4294966712
596572834,6465140,6479526,16332,1734,4294966007,4294967278,82,4294967179,13480,7424,6628,353,1,4294967276,15959,4294963932,3949,51,339,279,4294966724,4294966724,4294966724
596578863,6464988,6479435,16347,1661,4294966140,4294967258,106,4294967219,13534,7455,6727,470,70,4294967256,15924,4294963911,3907,109,323,282,4294966706,4294966706,4294966706
596584856,6465277,6479936,16355,1633,4294965994,4294967223,72,4294967236,13524,7456,6603,509,128,4294967213,15904,4294963835,3981,153,289,285,4294966712,4294966712,4294966712
596590837,6465584,6480155,16356,1622,4294966046,4294967141,71,4294967227,13500,7396,6640,545,194,4294967189,15909,4294963854,4065,99,280,240,4294966722,4294966722,4294966722
596596843,6465566,6480050,16222,1636,4294966018,4294967064,104,4294967154,13517,7410,6667,485,231,4294967181,15940,4294963847,4090,87,254,215,4294966722,4294966722,4294966722
596602837,6465763,6480413,16247,1600,4294965960,4294967103,149,4294967113,13536,7477,6579,367,290,4294967153,15964,4294963859,4140,81,265,210,4294966723,4294966723,4294966723
596608833,6465724,6480654,16227,1645,4294966037,4294967111,170,4294967091,13508,7490,6563,389,292,4294967132,15886,4294963871,4011,78,277,187,4294966723,4294966723,4294966723
596614847,6465392,6479973,16214,1708,4294966119,4294967150,199,4294967097,13480,7432,6592,438,283,4294967093,15927,4294963870,4045,95,269,179,4294966717,4294966717,4294966717
596620849,6465433,6480207,16208,1766,4294966037,4294967147,187,4294967157,13529,7450,6554,525,302,4294967095,15983,4294963862,3940,68,277,193,4294966718,4294966718,4294966718
596626852,6465323,6480232,16266,1750,4294966093,4294967110,175,4294967229,13482,7394,6454,585,306,4294967113,15938,4294963858,3920,45,265,213,4294966714,4294966714,4294966714
596632840,6465190,6479811,16270,1775,4294966142,4294967091,123,4294967262,13523,7455,6455,643,339,4294967143,15868,4294963803,3917,28,235,241,4294966721,4294966721,4294966721
596638852,6465130,6479698,16271,1792,4294966276,4294967074,85,3,13508,7427,6465,663,345,4294967151,15924,4294963819,3869,9,229,266,4294966712,4294966712,4294966712
596644838,6465462,6480505,16261,1720,4294966248,4294967086,12,10,13483,7423,6542,626,347,4294967163,15914,4294963785,3788,73,211,242,4294966724,4294966724,4294966724
596650849,6465415,6480167,16191,1628,4294966332,4294967087,4294967247,34,13462,7519,6520,595,346,4294967207,15865,4294963741,3894,169,215,248,4294966714,4294966714,4294966714
596656857,6465255,6479901,16197,1655,4294966365,4294967040,4294967180,42,13511,7437,6570,601,319,4294967228,15877,4294963726,3806,187,213,234,4294966712,4294966712,4294966712
596662850,6465217,6479860,16176,1611,4294966292,4294967022,4294967138,49,13524,7384,6618,591,316,4294967259,15881,4294963697,3915,205,244,222,4294966716,4294966716,4294966716
596668853,6465006,6479984,16178,1623,4294966230,4294967003,4294967147,22,13518,7375,6645,586,249,4294967271,15820,4294963719,3879,212,247,223,4294966715,4294966715,4294966715
596674865,6465425,6480108,16177,1550,4294966175,4294967032,4294967202,4294967281,13510,7362,6706,527,248,0,15857,4294963704,3930,181,266,205,4294966705,4294966705,4294966705
596680843,6465340,6480175,16136,1597,4294966066,4294967085,4294967209,4294967265,13514,7420,6657,473,229,25,15893,4294963722,3970,171,276,185,4294966723,4294966723,4294966723
596686853,6465756,6480658,16139,1601,4294966010,4294967093,4294967221,4294967231,13467,7441,6679,441,197,59,15887,4294963798,3866,156,263,224,4294966717,4294966717,4294966717
596692859,6465504,6480315,16122,1660,4294966031,4294967094,4294967287,4294967214,13475,7459,6628,474,232,61,15890,4294963791,3898,97,259,260,4294966710,4294966710,4294966710
596698846,6465286,6480037,16222,1621,4294966168,4294967015,50,4294967196,13468,7436,6655,495,258,56,15916,4294963792,4037,25,265,283,4294966721,4294966721,4294966721
596704839,6465600,6480701,16185,1562,4294966116,4294967087,89,4294967199,13498,7415,6723,522,285,61,15883,4294963755,3980,25,229,310,4294966721,4294966721,4294966721
596710839,6465389,6480562,16222,1549,4294966182,4294967102,65,4294967209,13473,7473,6659,550,282,40,15864,4294963665,3996,59,182,289,4294966725,4294966725,4294966725
596716854,6465246,6480345,16212,1633,4294966177,4294967105,4294967265,4294967206,13497,7475,6640,508,263,41,15902,4294963714,3999,123,200,297,4294966712,4294966712,4294966712
596722855,6465586,6481198,16254,1572,4294966283,4294967054,4294967248,4294967187,13513,7521,6709,481,251,41,15934,4294963744,3824,120,242,288,4294966714,4294966714,4294966714
596728837,6465710,6481051,16291,1583,4294966293,4294967053,4294967233,4294967194,13566,7503,6583,423,252,48,15989,4294963769,3914,92,328,301,4294966722,4294966722,4294966722
596734842,6465627,6481015,16255,1521,4294966254,4294967084,4294967239,4294967176,13571,7413,6572,367,246,52,15921,4294963805,3930,65,350,305,4294966720,4294966720,4294966720
596740845,6465813,6481095,16251,1533,4294966254,4294967131,4294967231,4294967185,13607,7440,6651,395,251,89,15925,4294963781,3845,92,385,316,4294966719,4294966719,4294966719
596746848,6465638,6481164,16202,1603,4294966297,4294967151,4294967216,4294967188,13620,7468,6562,436,281,95,15880,4294963839,3867,64,470,367,4294966715,4294966715,4294966715
596752838,6465575,6480931,16270,1636,4294966283,4294967194,4294967241,4294967174,13585,7520,6540,398,286,114,15944,4294963752,3877,63,490,381,4294966720,4294966720,4294966720
596758851,6465624,6480599,16276,1593,4294966210,4294967196,4294967229,4294967209,13569,7491,6607,341,285,166,15949,4294963708,3949,19,509,401,4294966719,4294966719,4294966719
596764846,6466009,6481257,16312,1616,4294966185,4294967290,4294967190,4294967230,13513,7395,6544,330,255,189,15861,4294963703,3943,4294967273,485,379,4294966718,4294966718,4294966718
596770839,6465649,6480664,16279,1675,4294966231,4294967145,4294967127,4294967226,13449,7440,6575,390,242,222,15864,4294963725,3965,4294967190,437,367,4294966722,4294966722,4294966722
596776847,6465462,6480199,16306,1576,4294966224,4294967065,4294967083,4294967204,13482,7466,6598,402,287,244,15890,4294963705,4057,4294967196,423,342,4294966716,4294966716,4294966716
596782854,6465859,6480904,16235,1628,4294966314,4294967034,4294967049,4294967200,13445,7478,6552,359,332,267,15889,4294963610,3951,4294967273,435,310,4294966716,4294966716,4294966716
596788845,6465654,6480718,16221,1579,4294966295,4294967034,4294967006,4294967191,13469,7425,6637,297,354,282,15850,4294963683,4027,45,413,283,4294966717,4294966717,4294966717
596794846,6465331,6479942,16199,1536,4294966282,4294967115,4294966931,4294967167,13503,7418,6658,245,342,310,15856,4294963663,3983,84,395,289,4294966721,4294966721,4294966721
596800843,6465328,6479847,16260,1561,4294966336,4294967145,4294966922,4294967121,13510,7430,6689,256,295,330,15833,4294963698,3949,49,348,295,4294966723,4294966723,4294966723
596806846,6465549,6480220,16253,1547,4294966241,4294967149,4294967018,4294967107,13544,7385,6695,257,263,316,15874,4294963721,3900,4294967244,324,293,4294966719,4294966719,4294966719
596812841,6465303,6480001,16272,1596,4294966206,4294967119,4294967077,4294967091,13471,7394,6683,210,223,341,15872,4294963794,3993,4294967143,354,325,4294966719,4294966719,4294966719
596818845,6465062,6479707,16203,1623,4294966172,4294967094,4294967142,4294967072,13492,7376,6756,143,162,310,15915,4294963724,3929,4294967087,384,335,4294966718,4294966718,4294966718
596824872,6465319,6480004,16173,1649,4294966255,4294967078,4294967166,4294967097,13474,7394,6785,90,167,343,15902,4294963621,4009,4294967155,373,340,4294966701,4294966701,4294966701
596830858,6465319,6479995,16237,1649,4294966248,4294967116,4294967217,4294967115,13489,7368,6770,141,187,325,15909,4294963618,3956,4294967252,387,322,4294966712,4294966712,4294966712
596836845,6465142,6480167,16230,1674,4294966187,4294967170,4294967190,4294967110,13458,7339,6724,188,212,308,15890,4294963667,3973,4294967288,364,277,4294966721,4294966721,4294966721
596842845,6465182,6480939,16265,1685,4294966123,4294967161,4294967206,4294967107,13479,7329,6672,215,227,292,15922,4294963717,3978,3,350,290,4294966720,4294966720,4294966720
596848840,6466373,6481920,16331,1657,4294966198,4294967208,4294967199,4294967155,13428,7306,6644,170,268,256,15895,4294963675,3903,4294967271,366,246,4294966720,4294966720,4294966720
596854844,6468338,6483087,16251,1627,4294966150,4294967215,4294967262,4294967147,13405,7260,6647,144,278,223,15899,4294963691,3947,4294967251,344,239,4294966719,4294966719,4294966719
596860842,6471157,6485854,16216,1648,4294966166,4294967254,4294967268,4294967156,13458,7300,6718,182,318,191,15851,4294963650,3891,4294967245,321,227,4294966720,4294966720,4294966720
596866842,6471313,6487242,16213,1620,4294966116,4294967266,4294967264,4294967178,13437,7347,6756,273,368,155,15860,4294963683,3869,4294967254,301,207,4294966719,4294966719,4294966719
596872843,6466293,6480242,16149,1639,4294966176,21,4294967264,4294967189,13380,7363,6626,317,424,114,15796,4294963716,3854,4294967294,279,207,4294966722,4294966722,4294966722
596878861,6464136,6474475,16214,1755,4294966188,4294967294,4294967220,4294967199,13451,7338,6602,322,463,109,15843,4294963729,3918,22,230,200,4294966706,4294966706,4294966706
596884832,6460998,6474260,16157,1657,4294966178,4294967193,4294967269,4294967221,13400,7380,6706,373,431,81,15825,4294963810,3902,37,207,168,4294966728,4294966728,4294966728
596890856,6461206,6476224,16122,1656,4294966235,4294967182,33,4294967192,13406,7418,6788,232,382,27,15870,4294963741,4169,36,104,133,4294966713,4294966713,4294966713
596896848,6462358,6477053,16186,1730,4294966280,4294967086,46,4294967195,13430,7414,6587,96,298,11,15881,4294963820,4154,4294967246,54,146,4294966720,4294966720,4294966720
596902844,6463955,6479279,16164,1719,4294966245,4294966985,4294967251,4294967219,13412,7336,6408,4294967241,139,4294967270,15875,4294963784,3944,4294967190,23,108,4294966716,4294966716,4294966716
596910836,6464204,6479472,16256,1792,4294966093,4294967102,4294967147,22,13377,7300,6726,4294967178,142,4294967229,15854,4294963846,3775,4294967231,54,97,4294966727,4294966727,4294966727
596916836,6465028,6480137,16311,1710,4294965910,4294967216,4294967132,51,13419,7264,6809,12,199,4294967178,15866,4294963971,3818,4294967129,69,89,4294966726,4294966726,4294966726
596922844,6465550,6480977,16263,1671,4294965969,4294967293,4294967225,55,13448,7332,6551,197,196,4294967128,15906,4294963849,3909,4294967010,74,123,4294966719,4294966719,4294966719
596928838,6465699,6480914,16228,1523,4294965943,4294967293,49,10,13485,7291,6426,295,326,4294967042,15903,4294963799,3778,4294967038,120,109,4294966725,4294966725,4294966725
596934855,6465576,6480743,16164,1493,4294966234,4294967264,169,4294967201,13492,7211,6643,317,444,4294967060,15927,4294963790,3648,4294967124,223,112,4294966712,4294966712,4294966712
596940847,6465545,6480671,16120,1441,4294966307,15,211,4294967086,13552,7161,6616,177,534,4294967011,15922,4294963734,3488,4294967202,307,118,4294966717,4294966717,4294966717
596946848,6465832,6481129,16086,1415,4294966364,4294967247,155,4294967002,13530,7160,6771,119,496,4294966981,15874,4294963708,3728,62,261,94,4294966720,4294966720,4294966720
596952840,6465760,6481052,16135,1554,4294966531,4294967132,65,4294966983,13585,7328,6883,123,445,4294966972,15865,4294963780,4016,63,213,88,4294966721,4294966721,4294966721
596958847,6465559,6480700,16174,1579,4294966587,4294967076,4294967182,4294967010,13502,7323,6876,204,363,4294966969,15873,4294963667,4259,4294967242,190,14,4294966717,4294966717,4294966717
596964854,6465858,6481277,16227,1693,4294966505,4294967231,4294966988,4294967075,13527,7299,6635,285,288,4294967008,15746,4294963679,4177,4294967188,116,10,4294966712,4294966712,4294966712
596970843,6466019,6481519,16327,1813,4294966296,4294967289,4294966959,4294967174,13456,7342,6421,48,223,4294966994,15689,4294963717,4026,4294967138,50,4294967258,4294966721,4294966721,4294966721
596978866,6466034,6480733,16353,1780,4294965973,81,4294967063,4294967292,13485,7253,6277,4294967046,198,4294966956,15614,4294963730,4015,4294966911,100,4294967293,4294966705,4294966705,4294966705
596986858,6466123,6481669,16233,1590,4294965787,87,134,4294967288,13576,7225,6419,4294967199,258,4294966985,15739,4294963649,4110,4294966596,81,79,4294966710,4294966710,4294966710
596992842,6466633,6482521,16188,1537,4294965696,71,448,4294967206,13528,7262,6624,44,330,4294966949,15788,4294963683,4129,4294966348,52,142,4294966723,4294966723,4294966723
596998846,6466142,6481616,16125,1528,4294965818,73,744,4294967075,13503,7386,6650,242,272,4294966922,15852,4294963631,4074,4294966201,4294967209,159,4294966721,4294966721,4294966721
597004849,6466458,6482267,16100,1439,4294965869,4294967288,909,4294967021,13575,7480,6644,215,260,4294966887,15823,4294963721,4026,4294966277,4294967141,156,4294966714,4294966714,4294966714
597010852,6466099,6481833,16124,1500,4294966067,4294967194,995,4294966998,13554,7473,6617,242,230,4294966853,15868,4294963719,4023,4294966487,4294967074,170,4294966717,4294966717,4294966717
597016858,6466186,6481655,16176,1491,4294966179,4294967120,891,4294967021,13492,7424,6708,278,255,4294966906,15983,4294963753,3826,4294966763,4294967029,218,4294966710,4294966710,4294966710
597022839,6466449,6482586,16122,1499,4294966447,4294967146,650,4294967066,13465,7459,6529,257,292,4294966894,15991,4294963736,3700,4294967012,4294967098,270,4294966725,4294966725,4294966725
597028859,6466395,6482389,16200,1581,4294966504,4294967294,373,4294967111,13406,7457,6581,289,325,4294966870,16081,4294963756,3528,4294967252,4294967202,247,4294966711,4294966711,4294966711
597034841,6466392,6482254,16274,1762,4294966531,212,112,4294967182,13437,7528,6614,214,471,4294966907,16130,4294963705,3621,4294967246,11,251,4294966718,4294966718,4294966718
597040857,6466292,6482254,16351,1885,4294966312,390,4294967284,4294967249,13323,7492,6585,170,483,4294966870,16194,4294963756,3698,4294967250,102,230,4294966713,4294966713,4294966713
597046845,6467111,6483362,16364,2105,4294966302,471,4294967182,48,13401,7616,6563,74,526,4294966852,16123,4294963683,3770,4294967286,108,202,4294966719,4294966719,4294966719
597052833,6466917,6483255,16445,2109,4294966276,364,4294967272,146,13328,7631,6550,4294967191,520,4294966901,16148,4294963671,3839,144,95,135,4294966727,4294966727,4294966727
597058841,6466972,6483157,16437,2173,4294966210,341,41,214,13352,7631,6571,4294967174,488,4294966898,16174,4294963632,3811,229,70,71,4294966720,4294966720,4294966720
597064838,6467116,6483526,16441,2011,4294966227,257,168,288,13501,7863,6517,4294967169,893,4294966745,16182,4294963707,3820,245,50,9,4294966724,4294966724,4294966724
597070866,6467117,6483274,16343,1934,4294966156,251,234,266,13642,7668,6401,4294967295,960,4294966799,16149,4294963781,3770,252,76,4294967269,4294966706,4294966706,4294966706
597076844,6466972,6482851,16372,1918,4294966313,230,287,207,13697,7827,6409,4294967229,859,4294966940,16069,4294963803,3702,202,56,4294967240,4294966718,4294966718,4294966718
597082843,6467137,6483251,16356,1816,4294966225,193,277,116,13522,7525,6509,4294966855,874,421,16017,4294963799,3771,145,118,4294967236,4294966719,4294966719,4294966719
597088865,6467152,6483128,16371,1753,4294966141,137,268,25,13297,7153,6472,233,442,4294966999,15977,4294963772,3731,172,123,4294967229,4294966705,4294966705,4294966705
597094859,6466997,6482439,16326,1644,4294966190,72,276,4294967262,13421,7366,6748,4294967190,509,4294966948,15934,4294963786,3735,199,167,4294967232,4294966714,4294966714,4294966714
597100838,6466749,6482236,16233,1598,4294966167,29,238,4294967183,13428,7515,6677,4294967233,352,4294966935,15914,4294963751,3785,249,156,4294967223,4294966723,4294966723,4294966723
597106862,6466878,6482550,16092,1597,4294966273,4294967235,167,4294967144,13539,7320,6691,59,357,4294966900,15996,4294963728,3731,225,175,4294967286,4294966703,4294966703,4294966703
597112858,6466585,6482394,16171,1545,4294966237,4294967285,169,4294967099,13516,7329,6684,212,253,4294966872,15897,4294963734,3742,161,238,5,4294966712,4294966712,4294966712
597118851,6466170,6481721,16068,1657,4294966248,4294967192,50,4294967066,13566,7406,6595,407,194,4294966853,15929,4294963721,3792,230,288,70,4294966718,4294966718,4294966718
597124843,6466292,6482163,16059,1631,4294966165,4294967146,4294967247,4294967055,13703,7459,6509,383,244,4294966875,15867,4294963707,3767,233,263,143,4294966718,4294966718,4294966718
597130841,6466230,6481752,16087,1612,4294966277,4294967179,4294967252,4294967044,13628,7417,6507,380,268,4294966902,15897,4294963727,3642,264,296,200,4294966724,4294966724,4294966724
597136848,6465692,6481064,16138,1711,4294966405,4294967263,4,4294967045,13565,7350,6673,334,340,4294966989,15903,4294963710,3648,292,355,276,4294966717,4294966717,4294966717
597142850,6465560,6481068,16113,1635,4294966483,4294967278,11,4294967060,13566,7489,6616,449,368,4294967025,15870,4294963718,3514,369,364,323,4294966718,4294966718,4294966718
597148857,6465542,6481172,16198,1618,4294966471,6,4294967220,4294967017,13442,7343,6645,502,357,4294967061,15877,4294963745,3592,415,375,374,4294966710,4294966710,4294966710
597154842,6465044,6480370,16281,1600,4294966420,38,4294967175,4294967020,13385,7466,6482,720,285,4294967075,15871,4294963682,3670,480,393,418,4294966722,4294966722,4294966722
597160836,6465217,6480839,16279,1665,4294966425,122,4294967092,4294967017,13447,7604,6477,777,254,4294967116,15939,4294963712,3735,626,338,426,4294966724,4294966724,4294966724
597166845,6465330,6481205,16307,1631,4294966382,95,4294967072,4294967027,13403,7592,6528,868,218,4294967175,15891,4294963693,3621,710,278,435,4294966716,4294966716,4294966716
597172859,6464958,6480523,16334,1636,4294966432,46,4294967111,4294967045,13388,7691,6522,945,227,4294967207,15970,4294963720,3639,779,239,430,4294966709,4294966709,4294966709
597178848,6464764,6480053,16297,1622,4294966362,4294967214,4294967136,4294967096,13452,7724,6578,985,226,4294967270,15991,4294963755,3682,820,228,451,4294966715,4294966715,4294966715
597184836,6464644,6480325,16290,1570,4294966330,4294967048,4294967171,4294967112,13443,7776,6611,1060,226,39,15984,4294963796,3763,817,218,462,4294966726,4294966726,4294966726
597190852,6465146,6480937,16296,1585,4294966303,4294967029,4294967247,4294967078,13493,7767,6582,1090,267,93,16028,4294963745,3859,842,220,464,4294966715,4294966715,4294966715
597196847,6464933,6480375,16213,1537,4294966417,4294967004,68,4294967017,13522,7739,6637,906,247,112,15900,4294963716,3914,840,193,461,4294966715,4294966715,4294966715
597202848,6465292,6480988,16165,1575,4294966344,4294966998,96,4294966974,13539,7659,6575,905,198,142,15936,4294963610,3959,852,184,447,4294966719,4294966719,4294966719
597208846,6465457,6481277,16094,1580,4294966319,4294967044,140,4294966965,13532,7640,6634,847,198,152,15966,4294963597,3970,817,174,449,4294966720,4294966720,4294966720
597214850,6465129,6480816,16117,1623,4294966391,4294967115,39,4294966942,13557,7677,6672,748,134,138,15945,4294963635,3840,798,140,432,4294966719,4294966719,4294966719
597220841,6465401,6481156,16208,1713,4294966392,4294967087,11,4294966978,13509,7668,6756,673,88,156,15965,4294963533,3724,826,168,455,4294966718,4294966718,4294966718
597226832,6465837,6481804,16214,1676,4294966451,4294967122,4294967200,4294966996,13474,7653,6703,564,35,164,16001,4294963555,3633,783,201,461,4294966727,4294966727,4294966727
597232864,6465155,6480798,16261,1674,4294966365,4294967242,4294967170,4294967007,13474,7637,6657,451,5,173,15965,4294963568,3489,769,261,483,4294966703,4294966703,4294966703
597238851,6464876,6480484,16338,1718,4294966373,49,4294967109,4294967033,13419,7678,6612,355,4294967285,147,16019,4294963628,3591,784,341,511,4294966716,4294966716,4294966716
597244844,6465155,6480919,16407,1773,4294966330,127,4294967091,4294967028,13401,7705,6655,286,4294967241,127,16048,4294963666,3637,746,394,534,4294966722,4294966722,4294966722
597250858,6465181,6480730,16347,1852,4294966264,33,4294967140,4294967062,13387,7752,6602,238,4294967264,143,16101,4294963697,3656,760,448,526,4294966712,4294966712,4294966712
597256840,6464985,6480349,16291,1823,4294966331,4294967252,4294967211,4294967050,13364,7739,6678,165,4294967253,152,16166,4294963705,3677,704,507,581,4294966721,4294966721,4294966721
597262848,6465245,6480733,16367,1775,4294966329,4294967119,4294967240,4294967058,13337,7820,6517,87,27,154,16107,4294963699,3692,782,563,598,4294966718,4294966718,4294966718
597268851,6465656,6481312,16349,1749,4294966349,4294967061,4294967254,4294967090,13400,7749,6480,33,33,113,16066,4294963747,3748,852,584,567,4294966717,4294966717,4294966717
597274856,6465262,6480975,16408,1680,4294966444,4294967027,4294967163,4294967099,13408,7667,6629,63,73,106,16081,4294963723,3834,903,568,577,4294966712,4294966712,4294966712
597280846,6465530,6480996,16366,1634,4294966421,4294967108,4294967141,4294967077,13445,7649,6602,162,134,100,16018,4294963756,3899,929,545,580,4294966719,4294966719,4294966719
597286836,6465818,6481410,16307,1783,4294966366,4294967119,4294967116,4294967040,13459,7652,6599,156,213,77,16067,4294963792,3999,874,522,575,4294966723,4294966723,4294966723
597292863,6465642,6481041,16276,1771,4294966374,4294967083,4294967066,4294967023,13426,7651,6467,57,262,45,15927,4294963701,4030,912,448,536,4294966708,4294966708,4294966708
597298844,6465383,6480896,16253,1821,4294966389,4294967012,4294967045,4294967025,13495,7574,6394,4294967256,309,56,15921,4294963609,4019,990,373,466,4294966719,4294966719,4294966719
597304850,6465510,6481449,16248,1835,4294966240,4294966962,4294967075,4294967008,13495,7594,6568,4294967198,335,59,15854,4294963623,4016,980,321,401,4294966714,4294966714,4294966714
597310840,6465495,6481502,16291,1786,4294966200,4294966952,4294967132,4294967038,13494,7627,6541,4294967233,306,50,15903,4294963746,3915,871,314,389,4294966722,4294966722,4294966722
597316841,6465304,6480975,16267,1852,4294966291,4294967061,4294967164,4294967058,13491,7570,6505,4294967229,288,67,15900,4294963692,3980,686,307,385,4294966720,4294966720,4294966720
597322855,6465337,6481283,16219,1804,4294966285,4294967097,4294967172,4294967076,13483,7681,6566,4294967185,227,83,15881,4294963672,3888,604,349,378,4294966714,4294966714,4294966714
597328861,6465237,6481206,16152,1831,4294966317,4294967153,4294967206,4294967095,13500,7590,6562,4294967091,152,90,15921,4294963672,3978,534,380,368,4294966710,4294966710,4294966710
597334861,6465356,6481223,16234,1831,4294966399,4294967149,4294967241,4294967102,13519,7632,6572,4294966999,104,117,15942,4294963722,3903,456,375,381,4294966707,4294966707,4294966707
597340852,6465226,6480969,16149,1763,4294966457,4294967077,13,4294967152,13554,7635,6662,4294966894,42,149,15945,4294963703,3889,465,387,377,4294966715,4294966715,4294966715
597346849,6465477,6481288,16203,1702,4294966410,4294966991,4294967252,4294967183,13466,7538,6635,4294966874,17,154,15866,4294963614,3916,467,372,394,4294966716,4294966716,4294966716
597352845,6465198,6480607,16205,1689,4294966418,4294966968,4294967282,4294967183,13431,7541,6713,4294966823,4294967279,169,15894,4294963641,3878,494,370,422,4294966721,4294966721,4294966721
597358855,6465144,6480260,16234,1654,4294966487,4294967064,6,4294967213,13395,7548,6775,4294966831,4294967275,157,15841,4294963619,3821,532,398,444,4294966710,4294966710,4294966710
597364841,6465496,6481008,16213,1688,4294966452,4294967047,4294967241,4294967228,13356,7502,6812,4294966831,2,129,15879,4294963627,3885,599,393,486,4294966720,4294966720,4294966720
597370842,6465528,6481101,16259,1684,4294966467,4294967061,4294967250,4294967247,13363,7499,6697,4294966785,59,122,15861,4294963683,3917,663,420,521,4294966722,4294966722,4294966722
597376838,6464981,6480116,16262,1689,4294966414,4294967096,4294967270,4294967279,13355,7538,6605,4294966763,75,102,15850,4294963687,3950,663,412,599,4294966726,4294966726,4294966726
597382844,6465400,6480827,16258,1623,4294966364,4294967122,4294967266,4294967290,13376,7576,6562,4294966747,112,138,15921,4294963655,3879,604,402,628,4294966720,4294966720,4294966720
597388833,6465321,6480822,16251,1641,4294966325,4294967155,19,4294967295,13381,7588,6541,4294966754,163,114,15887,4294963653,3856,525,406,670,4294966728,4294966728,4294966728
597394851,6464827,6479680,16209,1640,4294966462,4294967165,34,6,13363,7619,6599,4294966756,186,138,15850,4294963669,3927,509,412,702,4294966714,4294966714,4294966714
597400856,6464989,6479832,16255,1692,4294966515,4294967204,64,2,13422,7528,6743,4294966730,215,144,15890,4294963657,3944,485,411,707,4294966711,4294966711,4294966711
597406852,6464995,6480054,16242,1699,4294966432,4294967219,25,4294967294,13408,7561,6794,4294966723,195,117,15873,4294963636,3932,480,377,727,4294966712,4294966712,4294966712
597412850,6464802,6480045,16230,1791,4294966546,4294967295,26,6,13517,7531,6727,4294966709,181,105,15895,4294963582,4011,563,349,739,4294966717,4294966717,4294966717
597418874,6464400,6479535,16265,1867,4294966531,21,4294967283,1,13479,7522,6720,4294966718,134,142,15919,4294963619,4018,625,336,709,4294966702,4294966702,4294966702
597424847,6464632,6479897,16360,1872,4294966584,4294967277,4294967228,40,13465,7503,6811,4294966703,116,158,15870,4294963581,4006,658,324,688,4294966716,4294966716,4294966716
597430847,6464379,6480367,16294,1883,4294966595,4294967291,4294967230,101,13484,7436,6739,4294966731,81,153,15839,4294963546,4031,630,299,662,4294966718,4294966718,4294966718
597436843,6464096,6480467,16336,1905,4294966570,4294967211,4294967229,104,13486,7426,6826,4294966673,48,169,15842,4294963514,4084,642,298,619,4294966722,4294966722,4294966722
597442848,6465527,6481626,16314,1865,4294966597,21,4294967178,95,13476,7442,6772,4294966577,4294967295,162,15853,4294963518,4027,657,320,609,4294966716,4294966716,4294966716
597448845,6467595,6482823,16267,1867,4294966659,4294967260,4294967166,117,13491,7426,6794,4294966527,4294967286,205,15856,4294963521,4007,646,328,579,4294966719,4294966719,4294966719
597454843,6470345,6484669,16267,1844,4294966550,4294967228,4294967199,93,13457,7415,6911,4294966519,4294967288,184,15894,4294963575,4031,648,286,579,4294966722,4294966722,4294966722
597460844,6470758,6486676,16277,1744,4294966511,4294967168,4294967240,77,13457,7416,6824,4294966541,4294967286,198,15907,4294963532,4091,670,294,585,4294966718,4294966718,4294966718
597466860,6466220,6481206,16283,1768,4294966517,4294967156,52,50,13439,7418,6758,4294966562,56,203,15951,4294963556,4021,593,249,610,4294966708,4294966708,4294966708
597472842,6461752,6475170,16197,1814,4294966367,4294967162,131,25,13520,7410,6673,4294966728,145,246,15895,4294963580,4000,483,264,584,4294966723,4294966723,4294966723
597478853,6460236,6474961,16131,1768,4294966529,4294967068,220,17,13518,7347,6677,4294966807,178,245,15920,4294963540,4028,399,238,618,4294966712,4294966712,4294966712
597484829,6460209,6476235,16131,1887,4294966585,4294967047,194,21,13519,7434,6722,4294966944,68,273,15958,4294963526,4094,343,232,631,4294966729,4294966729,4294966729
597490861,6461842,6477674,16255,1840,4294966657,4294966892,110,33,13562,7393,6598,4294966988,30,266,15961,4294963550,4143,339,251,628,4294966708,4294966708,4294966708
597496829,6462984,6478835,16341,1854,4294966698,4294966824,4294967263,87,13622,7370,6332,4294966918,4294967251,282,15887,4294963576,4068,364,268,624,4294966730,4294966730,4294966730
597502841,6464195,6480238,16384,1833,4294966624,4294966914,4294967135,97,13606,7345,6579,4294966880,4294967241,286,15891,4294963573,3925,378,359,652,4294966721,4294966721,4294966721
597508849,6464936,6481051,16373,1932,4294966490,4294966999,4294967034,122,13564,7182,6854,4294966963,4294967282,270,15925,4294963589,3931,390,402,643,4294966714,4294966714,4294966714
597514851,6464731,6480378,16326,1926,4294966400,4294967016,4294967030,167,13566,7206,6846,4294967154,40,177,15906,4294963651,4040,339,370,684,4294966714,4294966714,4294966714
597520848,6465128,6480590,16356,1896,4294966246,4294966995,4294967146,154,13499,7318,6568,4294967203,4294967294,190,15952,4294963633,4048,321,371,692,4294966717,4294966717,4294966717
597526855,6465309,6481091,16318,1881,4294966256,4294966920,15,101,13471,7248,6552,4294967189,48,184,15872,4294963623,3848,275,485,635,4294966710,4294966710,4294966710
597532848,6465229,6480985,16218,1776,4294966424,4294966856,110,53,13472,7045,6784,4294967102,144,187,15869,4294963571,3899,247,595,574,4294966717,4294966717,4294966717
597538834,6464902,6480812,16151,1702,4294966597,4294966828,185,4294967238,13529,7117,6751,4294967194,153,146,15872,4294963550,3929,351,580,535,4294966727,4294966727,4294966727
597544862,6465117,6481197,16086,1661,4294966802,4294966755,125,4294967113,13543,7301,6913,111,68,143,15822,4294963490,4245,492,479,476,4294966710,4294966710,4294966710
597550853,6465075,6480897,16116,1759,4294966892,4294966739,4294967239,4294967039,13500,7339,6842,199,3,218,15784,4294963396,4440,569,369,359,4294966712,4294966712,4294966712
597556845,6464932,6480562,16231,1822,4294966864,4294966775,4294967032,4294967040,13517,7333,6763,225,4294967232,230,15674,4294963360,4302,663,219,286,4294966721,4294966721,4294966721
597562871,6465069,6480931,16294,1869,4294966714,4294966841,4294966836,4294967096,13535,7303,6534,192,4294967182,256,15706,4294963411,4282,737,133,247,4294966702,4294966702,4294966702
597568846,6465565,6481411,16301,1948,4294966510,4294966843,4294966730,4294967195,13535,7218,6495,4294967257,4294967197,287,15685,4294963408,4235,654,156,286,4294966719,4294966719,4294966719
597574833,6465672,6481560,16342,1869,4294966385,4294966782,4294966757,4294967294,13607,7283,6515,4294967073,4294967134,329,15711,4294963415,4227,531,183,232,4294966725,4294966725,4294966725
597580846,6465482,6481267,16375,1712,4294966160,4294966810,4294966905,8,13622,7243,6618,4294966935,4294967115,397,15691,4294963346,4240,397,154,283,4294966718,4294966718,4294966718
597586841,6465604,6481748,16297,1560,4294966054,4294966880,4294967154,4294967234,13615,7255,6767,4294966970,4294967109,389,15756,4294963336,4276,270,175,307,4294966721,4294966721,4294966721
597592842,6465917,6481805,16205,1492,4294966006,4294966965,156,4294967108,13605,7209,6895,4294967262,4294967100,372,15840,4294963321,4247,134,190,318,4294966722,4294966722,4294966722
597598842,6465936,6481708,16134,1442,4294966168,4294966970,389,4294967030,13609,7235,6833,149,4294967181,440,15821,4294963378,4137,64,216,364,4294966720,4294966720,4294966720
597604859,6466488,6482515,16101,1473,4294966348,4294966945,510,4294967003,13615,7172,6788,194,4294967256,365,15841,4294963485,4087,72,285,411,4294966712,4294966712,4294966712
597610844,6466329,6482425,16098,1415,4294966478,4294966947,493,4294967005,13601,7434,6772,198,4294967282,387,15826,4294963490,3909,126,373,506,4294966717,4294966717,4294966717
597616852,6465778,6481687,16078,1504,4294966607,4294966950,353,4294967054,13562,7327,6760,57,53,425,15903,4294963548,3772,225,444,565,4294966715,4294966715,4294966715
597622854,6466085,6482238,16131,1530,4294966832,4294967022,167,4294967070,13568,7363,6652,4294967247,114,440,15900,4294963566,3751,268,578,635,4294966710,4294966710,4294966710
597628837,6466027,6482274,16166,1650,4294966950,4294967204,4294967202,4294967144,13535,7401,6752,4294967054,226,499,15894,4294963483,3721,330,674,707,4294966726,4294966726,4294966726
597634850,6465914,6482074,16220,1746,4294966912,4294967252,4294966961,4294967206,13470,7389,6754,4294967111,321,477,15915,4294963516,3730,406,725,739,4294966715,4294966715,4294966715
597640861,6466103,6482097,16337,1897,4294966896,4294967291,4294966816,4294967269,13478,7314,6723,4294967129,340,497,15901,4294963526,3871,467,716,766,4294966710,4294966710,4294966710
597646854,6466291,6482565,16340,1955,4294966849,4294967284,4294966757,46,13523,7307,6687,4294967149,307,409,15917,4294963566,4014,450,694,768,4294966717,4294966717,4294966717
597652855,6466540,6482627,16341,1941,4294966704,4294967248,4294966776,89,13410,7226,6630,4294967011,305,384,15836,4294963545,3969,403,678,760,4294966713,4294966713,4294966713
597658845,6466450,6482592,16356,1978,4294966499,4294967265,4294966780,121,13465,7287,6612,4294966942,331,363,15869,4294963578,4007,391,636,714,4294966721,4294966721,4294966721
597664849,6466728,6482905,16346,1888,4294966364,4294967269,4294966877,87,13468,7302,6616,4294966809,370,336,15901,4294963586,4035,339,660,648,4294966717,4294966717,4294966717
597670851,6466632,6482726,16375,1878,4294966367,4294967258,4294967015,39,13580,7312,6674,4294966737,433,363,15792,4294963576,4012,282,616,589,4294966714,4294966714,4294966714
597676848,6466616,6482313,16399,1916,4294966407,4294967218,4294967092,4294967277,13412,7185,6701,4294966706,431,350,15928,4294963573,4061,235,598,505,4294966717,4294966717,4294966717
597682853,6466669,6482548,16383,1883,4294966396,4294967218,4294967131,4294967221,13446,7252,6681,4294966779,456,309,15913,4294963596,4084,129,609,432,4294966714,4294966714,4294966714
597688867,6466825,6482753,16349,1895,4294966489,4294967093,4294967179,4294967189,13430,7230,6746,4294966819,435,298,15820,4294963583,4091,103,607,443,4294966708,4294966708,4294966708
597694858,6466526,6482045,16308,1811,4294966317,4294967008,4294967203,4294967203,13510,7309,6783,4294966809,472,279,15896,4294963548,4092,112,584,375,4294966712,4294966712,4294966712
597700848,6466920,6482631,16286,1768,4294966348,4294966927,4294967247,4294967197,13574,7350,6801,4294966759,480,314,15867,4294963587,4107,77,515,293,4294966717,4294966717,4294966717
597706848,6467080,6482947,16285,1761,4294966379,4294966922,4294967274,4294967218,13525,7267,6806,4294966751,445,296,15834,4294963538,4218,17,450,264,4294966717,4294966717,4294966717
597712840,6466588,6482176,16273,1779,4294966393,4294966925,4294967282,4294967212,13563,7353,6808,4294966758,475,287,15915,4294963493,4296,73,483,273,4294966721,4294966721,4294966721
597718864,6466289,6481982,16249,1787,4294966377,4294966924,7,4294967230,13634,7353,6743,4294966734,449,269,15971,4294963452,4265,98,476,258,4294966708,4294966708,4294966708
597724845,6466295,6482309,16230,1764,4294966368,4294966902,27,4294967273,13690,7303,6776,4294966745,440,227,15938,4294963417,4218,73,503,226,4294966719,4294966719,4294966719
597730836,6466036,6481814,16141,1715,4294966364,4294966885,70,20,13656,7226,6822,4294966836,411,192,15892,4294963394,4009,124,581,217,4294966726,4294966726,4294966726
597736844,6465800,6481309,16200,1717,4294966485,4294966854,69,74,13608,7231,6946,4294966932,413,179,16015,4294963475,4121,187,620,229,4294966719,4294966719,4294966719
597742840,6465788,6481483,16249,1732,4294966569,4294966811,4294967268,115,13612,7167,7058,4294966943,417,191,15949,4294963442,4108,215,673,227,4294966721,4294966721,4294966721
597748856,6465632,6481227,16287,1731,4294966560,4294966832,4294967186,139,13603,7174,6944,4294966910,380,188,15853,4294963385,4242,348,737,263,4294966713,4294966713,4294966713
597754863,6465195,6480567,16283,1761,4294966502,4294966890,4294967094,107,13564,7182,7001,4294966799,358,212,15837,4294963383,4284,377,736,276,4294966707,4294966707,4294966707
597760831,6465254,6480761,16268,1789,4294966445,4294967095,4294967082,121,13528,7092,6957,4294966723,318,232,15808,4294963375,4124,427,728,307,4294966727,4294966727,4294966727
597766860,6465230,6480805,16240,1866,4294966455,4294967195,4294967124,142,13480,7107,6866,4294966745,318,263,15722,4294963363,4200,480,731,323,4294966711,4294966711,4294966711
597772838,6465151,6480319,16268,1880,4294966387,4294967157,4294967074,167,13462,7046,6802,4294966827,326,266,15677,4294963363,4177,453,697,365,4294966725,4294966725,4294966725
597778837,6465056,6480560,16304,1817,4294966499,4294967152,4294967034,200,13454,7029,6759,4294966870,309,188,15721,4294963367,4229,470,694,403,4294966725,4294966725,4294966725
597784842,6465356,6480874,16241,1806,4294966426,4294967144,4294966982,205,13474,7045,6766,4294966771,401,198,15760,4294963342,4187,414,679,415,4294966721,4294966721,4294966721
597790843,6465476,6481045,16190,1634,4294966404,4294967112,4294967007,167,13499,6913,6727,4294966805,367,190,15752,4294963330,4264,365,698,426,4294966718,4294966718,4294966718
597796852,6465466,6481009,16153,1559,4294966428,4294967108,4294967006,83,13580,6977,6718,4294966913,356,137,15763,4294963378,4203,334,710,383,4294966712,4294966712,4294966712
597802840,6465815,6481562,16220,1615,4294966444,4294967072,4294967058,15,13586,6986,6721,4294966962,368,178,15521,4294963344,4289,238,553,406,4294966722,4294966722,4294966722
597808845,6465647,6481479,16188,1612,4294966477,4294967019,4294967061,4294967294,13586,6889,6734,4294967056,348,135,15584,4294963346,4259,329,505,434,4294966717,4294966717,4294966717
597814842,6465617,6481121,16209,1571,4294966521,4294967008,4294967086,4294967282,13642,6973,6513,4294967173,342,108,15689,4294963344,4226,438,426,368,4294966719,4294966719,4294966719
597820848,6465626,6481148,16205,1621,4294966502,4294966991,4294967073,4294967280,13667,7067,6562,4294967262,398,128,15757,4294963391,4171,388,421,343,4294966717,4294966717,4294966717
597826853,6465711,6481406,16240,1682,4294966582,4294966963,4294967035,4294967270,13736,6999,6504,14,452,142,15857,4294963405,4221,388,393,348,4294966712,4294966712,4294966712
597832838,6465394,6480910,16281,1695,4294966706,4294966960,4294966968,4294967285,13738,6996,6598,33,556,193,15777,4294963385,4182,400,379,358,4294966723,4294966723,4294966723
597838829,6465104,6480486,16331,1673,4294966685,4294966933,4294966924,4294967294,13741,6900,6539,58,583,182,15761,4294963432,4226,362,381,299,4294966730,4294966730,4294966730
597844847,6465079,6480546,16254,1709,4294966647,4294966961,4294966922,30,13729,6801,6597,106,662,189,15790,4294963324,4225,374,354,290,4294966719,4294966719,4294966719
597850846,6464810,6480151,16256,1678,4294966526,4294966977,4294966891,46,13709,6838,6605,137,670,163,15714,4294963336,4229,465,347,232,4294966716,4294966716,4294966716
597856836,6464491,6479710,16300,1638,4294966428,4294966991,4294966947,51,13593,6758,6672,239,648,108,15759,4294963353,4111,495,358,166,4294966724,4294966724,4294966724
597862857,6464689,6479935,16320,1637,4294966456,4294967018,4294966958,19,13637,6849,6631,210,673,80,15838,4294963378,4106,460,422,176,4294966710,4294966710,4294966710
597868850,6465182,6480548,16233,1605,4294966310,4294967045,4294967019,6,13592,6930,6693,177,702,108,15711,4294963388,4046,494,419,126,4294966719,4294966719,4294966719
597874846,6464937,6479949,16286,1555,4294966309,4294967066,4294967033,4294967246,13489,6916,6726,255,666,137,15709,4294963383,3986,501,425,148,4294966719,4294966719,4294966719
597880840,6465180,6480037,16231,1619,4294966343,4294967105,4294967102,4294967225,13473,6911,6790,284,684,125,15624,4294963422,3973,507,422,149,4294966723,4294966723,4294966723
597886843,6465567,6480760,16279,1582,4294966318,4294967048,4294967117,4294967145,13449,6944,6756,339,728,95,15600,4294963384,3990,502,432,140,4294966719,4294966719,4294966719
597892858,6465049,6480307,16280,1505,4294966305,4294967029,4294967164,4294967142,13350,6920,6920,316,682,89,15595,4294963375,3961,470,434,189,4294966712,4294966712,4294966712
597898850,6464855,6480172,16250,1489,4294966360,4294967067,4294967219,4294967071,13419,7034,6840,285,654,76,15547,4294963367,4126,422,452,153,4294966716,4294966716,4294966716
597904847,6465237,6481015,16163,1516,4294966424,4294967080,4294967282,4294967016,13367,7089,6826,212,663,96,15590,4294963332,4134,381,429,150,4294966718,4294966718,4294966718
597910850,6464999,6480215,16119,1546,4294966433,4294967082,26,4294966999,13349,7019,6832,230,631,64,15667,4294963287,4060,365,389,159,4294966716,4294966716,4294966716
597916855,6464482,6479618,16056,1534,4294966490,4294967062,32,4294966950,13579,7081,6824,332,663,4294967283,15707,4294963321,4086,355,357,175,4294966714,4294966714,4294966714
597922844,6464445,6479645,16067,1584,4294966465,4294966988,65,4294966973,13500,7066,6787,336,733,4294967256,15760,4294963372,4068,355,314,191,4294966722,4294966722,4294966722
597928862,6464719,6479817,16083,1595,4294966561,4294966985,14,4294967011,13500,7196,6844,381,771,4294967229,15733,4294963415,4183,246,322,219,4294966710,4294966710,4294966710
597934850,6464698,6479793,16141,1621,4294966454,4294966910,4294967256,4294967038,13527,7142,6896,364,799,4294967222,15843,4294963360,4117,166,372,196,4294966717,4294966717,4294966717
