t_us,ads_ch1,ads_ch2,ax0,ay0,az0,gx0,gy0,gz0,ax1,ay1,az1,gx1,gy1,gz1,ax2,ay2,az2,gx2,gy2,gz2,dt0_us,dt1_us,dt2_us
775324857,6465653,6476308,13587,5377,6737,7,106,4294967105,11084,6534,11292,425,432,4294967240,13585,4294963377,8933,4294967295,175,266,4294966712,4294966712,4294966712
775330854,6465438,6475948,13564,5451,6724,4294967238,137,4294967081,11067,6555,11357,516,322,4294967254,13640,4294963370,8963,4294967292,178,260,4294966715,4294966715,4294966715
775336861,6465867,6476380,13576,5503,6714,4294967229,108,4294967108,11070,6590,11308,551,278,4294967262,13615,4294963369,9120,9,160,261,4294966708,4294966708,4294966708
775342848,6465521,6476248,13706,5525,6520,4294967259,4294967260,4294967153,11015,6633,11169,504,266,4294967294,13578,4294963261,9261,153,45,214,4294966720,4294966720,4294966720
775348830,6465463,6476079,13847,5575,6415,4294967293,4294967100,4294967181,11098,6660,11128,409,252,13,13565,4294963270,9289,349,4294967246,168,4294966726,4294966726,4294966726
775354854,6465586,6476356,13923,5552,6363,98,4294966990,4294967242,11026,6744,11022,301,195,4294967282,13498,4294963303,9252,579,4294967115,171,4294966715,4294966715,4294966715
775360865,6466416,6477290,13902,5543,6237,195,4294966932,4294967275,10976,6715,10998,201,190,4294967294,13552,4294963342,9092,709,4294967108,196,4294966707,4294966707,4294966707
775366862,6466420,6477243,13921,5531,6157,191,4294966988,4294967278,10992,6713,11069,150,178,4294967276,13498,4294963377,9134,786,4294967090,185,4294966707,4294966707,4294966707
775372841,6465488,6476787,13872,5403,6084,183,4294967103,4294967235,10994,6673,11200,94,94,4294967293,13579,4294963380,9230,865,4294967047,240,4294966719,4294966719,4294966719
775378849,6465404,6476829,13910,5311,6095,143,49,4294967169,10971,6713,11168,92,15,4294967259,13653,4294963475,9234,921,4294966938,256,4294966716,4294966716,4294966716
775384838,6466366,6477536,13845,5308,6076,102,272,4294967078,10907,6729,11089,109,4294967248,4294967274,13682,4294963494,9081,862,4294966854,258,4294966726,4294966726,4294966726
775390841,6465912,6477225,13815,5262,6089,49,510,4294967026,10835,6765,11057,235,4294967251,4294967294,13669,4294963543,9017,710,4294966767,272,4294966724,4294966724,4294966724
775396849,6465170,6476606,13749,5349,6188,4294967241,700,4294966999,10911,6777,11038,361,4294967291,1,13708,4294963595,8957,531,4294966797,275,4294966714,4294966714,4294966714
775402842,6465456,6477230,13710,5385,6304,4294967157,834,4294967026,10912,6756,11017,520,86,10,13734,4294963598,8847,468,4294966826,297,4294966723,4294966723,4294966723
775408856,6465528,6477434,13678,5416,6436,4294967105,833,4294967068,10921,6760,10971,623,205,25,13727,4294963650,8667,502,4294966897,371,4294966710,4294966710,4294966710
775414840,6466646,6478146,13685,5464,6567,4294967114,690,4294967161,10944,6770,11003,760,307,46,13787,4294963673,8759,617,4294966992,425,4294966721,4294966721,4294966721
775420838,6467117,6478640,13702,5504,6664,4294967202,471,4294967232,10953,6776,11006,816,412,62,13841,4294963603,8840,688,4294966992,497,4294966725,4294966725,4294966725
775426836,6466851,6478608,13791,5601,6729,23,214,47,10940,6756,11085,880,469,61,13806,4294963566,8864,795,4294966995,523,4294966724,4294966724,4294966724
775432836,6466653,6478859,13771,5728,6815,109,4294967226,112,11026,6834,11170,868,421,15,13774,4294963496,8924,850,4294966949,468,4294966725,4294966725,4294966725
775438847,6466691,6478846,13867,5751,6776,164,4294966989,217,11064,6706,11304,806,352,4294967273,13787,4294963470,8867,955,4294966991,456,4294966715,4294966715,4294966715
775444848,6467165,6479221,13896,5743,6819,188,4294966809,285,11039,6687,11315,663,216,4294967234,13742,4294963447,8921,998,4294967049,413,4294966715,4294966715,4294966715
775450859,6467609,6479581,13913,5685,6695,143,4294966669,321,10973,6662,11186,469,142,4294967214,13669,4294963428,8996,978,4294967166,399,4294966707,4294966707,4294966707
775456861,6467429,6479157,13917,5685,6707,87,4294966566,329,10999,6672,11063,278,152,4294967209,13660,4294963478,8865,911,4294967208,362,4294966707,4294966707,4294966707
775462847,6466841,6478739,13906,5571,6702,31,4294966462,335,10966,6688,10961,179,217,4294967206,13610,4294963486,8933,869,4294967231,315,4294966720,4294966720,4294966720
775468856,6466248,6478169,13902,5489,6641,4294967264,4294966441,297,10938,6698,10980,138,280,4294967218,13481,4294963454,8964,846,4294967241,303,4294966710,4294966710,4294966710
775474853,6465979,6477976,13820,5446,6556,4294967239,4294966455,260,10949,6739,10871,198,366,4294967236,13453,4294963484,8897,793,4294967221,268,4294966714,4294966714,4294966714
775480853,6466157,6477821,13869,5392,6477,4294967207,4294966457,206,10965,6681,10828,342,453,4294967246,13484,4294963496,8918,759,4294967207,221,4294966712,4294966712,4294966712
775486839,6465880,6477545,13847,5396,6461,4294967180,4294966508,164,10933,6667,10745,520,575,4294967238,13491,4294963535,8923,798,4294967127,228,4294966725,4294966725,4294966725
775492842,6465958,6477465,13874,5385,6454,4294967157,4294966573,122,10865,6584,10766,720,685,4294967261,13499,4294963611,8934,934,4294967037,183,4294966719,4294966719,4294966719
775498847,6466136,6476970,13892,5429,6388,4294967145,4294966675,91,10852,6547,10819,904,777,4294967251,13483,4294963599,9020,1021,4294967005,204,4294966721,4294966721,4294966721
775504855,6465036,6476450,13923,5462,6311,4294967128,4294966760,45,10812,6481,10983,1064,794,4294967220,13492,4294963630,8969,1047,4294967008,222,4294966714,4294966714,4294966714
775510848,6464052,6475635,13830,5465,6336,4294967120,4294966875,34,10773,6446,10998,1182,831,4294967201,13483,4294963561,8908,989,4294967076,222,4294966718,4294966718,4294966718
775516864,6464231,6475424,13855,5540,6330,4294967129,4294966980,11,10759,6390,10916,1264,872,4294967187,13410,4294963530,8885,943,4294967207,199,4294966705,4294966705,4294966705
775522831,6465368,6475501,13811,5550,6330,4294967154,4294967051,9,10704,6443,10842,1334,955,4294967158,13381,4294963577,8840,905,80,200,4294966728,4294966728,4294966728
775528841,6465283,6475244,13745,5569,6446,4294967183,4294967168,4,10724,6481,10951,1348,1051,4294967183,13282,4294963637,8827,860,242,196,4294966720,4294966720,4294966720
775534837,6464659,6475141,13728,5457,6388,4294967186,4294967289,4294967264,10722,6587,11086,1380,1078,4294967214,13210,4294963585,8811,751,371,188,4294966726,4294966726,4294966726
775540847,6464732,6474867,13665,5469,6408,4294967195,70,4294967248,10719,6603,11081,1427,1009,4294967268,13145,4294963587,8881,677,485,183,4294966716,4294966716,4294966716
775546852,6464902,6475086,13661,5426,6443,4294967144,156,4294967198,10720,6665,11014,1515,975,38,13079,4294963567,9076,652,545,214,4294966718,4294966718,4294966718
775552844,6464766,6475014,13602,5366,6361,4294967105,203,4294967163,10703,6651,10892,1492,888,87,13086,4294963452,9265,693,523,239,4294966722,4294966722,4294966722
775558856,6464928,6475174,13568,5287,6403,4294967041,208,4294967131,10767,6605,11014,1432,805,122,13084,4294963494,9081,734,421,243,4294966709,4294966709,4294966709
775564842,6465240,6475803,13515,5255,6398,4294966957,172,4294967092,10706,6591,11144,1467,739,177,13106,4294963556,8908,729,409,288,4294966722,4294966722,4294966722
775570841,6464627,6475076,13525,5135,6476,4294966910,103,4294967036,10664,6632,11270,1528,664,228,13116,4294963541,9011,555,377,353,4294966721,4294966721,4294966721
775576860,6465332,6475142,13594,5068,6421,4294966855,4294967269,4294967018,10614,6631,11230,1530,598,272,13149,4294963463,9202,395,249,379,4294966709,4294966709,4294966709
775582844,6465273,6475384,13595,5073,6468,4294966838,4294967072,4294967008,10656,6608,11163,1472,504,297,13162,4294963265,9018,382,105,426,4294966716,4294966716,4294966716
775588833,6464753,6475229,13663,5061,6508,4294966864,4294966905,4294967006,10680,6596,11102,1401,486,351,13329,4294963256,8825,383,43,468,4294966725,4294966725,4294966725
775594847,6464997,6475613,13653,5082,6440,4294966873,4294966793,4294966987,10666,6618,11160,1357,480,348,13363,4294963249,8784,353,4294967279,487,4294966715,4294966715,4294966715
775600833,6465382,6475809,13724,5065,6373,4294966965,4294966735,4294967026,10800,6540,11417,1401,413,328,13515,4294963272,9063,262,4294967040,470,4294966728,4294966728,4294966728
775606856,6464796,6475480,13686,5157,6337,4294967005,4294966736,4294967001,10851,6568,11644,1568,253,333,13588,4294963277,9271,60,4294966735,480,4294966715,4294966715,4294966715
775612859,6464247,6475334,13687,5184,6325,4294967068,4294966814,4294967010,10871,6548,11609,1720,74,280,13606,4294963208,9339,40,4294966526,514,4294966709,4294966709,4294966709
775618835,6464837,6475868,13740,5255,6352,4294967130,4294966914,4294967024,10918,6439,11328,1851,130,282,13642,4294963311,9106,125,4294966410,500,4294966726,4294966726,4294966726
775624846,6465209,6476005,13739,5381,6388,4294967158,4294966996,4294967048,10806,6532,11051,2020,215,230,13551,4294963517,8986,358,4294966343,536,4294966718,4294966718,4294966718
775630845,6464573,6475371,13630,5414,6615,4294967073,4294967064,4294967063,10900,6576,10861,1949,434,212,13669,4294963717,8766,435,4294966448,629,4294966717,4294966717,4294966717
775636840,6465098,6475782,13655,5581,6826,4294966972,4294966986,4294967097,10948,6732,10702,1906,614,189,13685,4294963685,8648,402,4294966734,673,4294966723,4294966723,4294966723
775642833,6465045,6475652,13672,5524,6864,4294966763,4294966833,4294967140,10944,6870,10736,1660,806,39,13761,4294963745,8601,515,4294967108,757,4294966722,4294966722,4294966722
775648847,6464874,6475471,13752,5509,6853,4294966613,4294966611,4294967152,11030,6926,10873,1743,920,117,13774,4294963634,8522,571,139,879,4294966715,4294966715,4294966715
775654839,6465644,6476104,13839,5474,6822,4294966555,4294966384,4294967209,11118,7173,10920,1920,830,168,14000,4294963316,8739,681,477,914,4294966721,4294966721,4294966721
775660842,6465223,6475616,13968,5477,6646,4294966596,4294966138,4294967273,11139,7330,11020,1791,793,126,14110,4294963566,8797,858,685,941,4294966720,4294966720,4294966720
775666847,6464729,6475218,14097,5515,6470,4294966715,4294965976,41,11142,7452,11138,1675,701,148,14031,4294963811,8715,4294967200,512,689,4294966720,4294966720,4294966720
775672862,6463948,6474774,14182,5565,6262,4294966860,4294965921,123,11159,7385,11182,1429,554,98,14132,4294963609,8766,4294966905,486,603,4294966708,4294966708,4294966708
775678849,6465155,6475727,14216,5591,6224,4294966972,4294965889,223,11130,7420,11224,1409,385,88,14255,4294963491,8751,4294966748,639,567,4294966716,4294966716,4294966716
775684844,6465065,6475748,14303,5535,6055,4294967133,4294966049,319,11153,7416,11200,1294,209,94,14206,4294963280,8795,4294966962,728,578,4294966716,4294966716,4294966716
775690858,6464450,6475527,14334,5488,6113,4294967253,4294966180,340,11186,7302,11141,931,145,27,14292,4294963551,8893,4294967192,842,527,4294966706,4294966706,4294966706
775696859,6464871,6475801,14207,5469,6215,33,4294966361,353,11080,7235,11199,1106,27,107,13920,4294963360,8557,96,956,600,4294966711,4294966711,4294966711
775702861,6464914,6475915,14237,5378,6243,31,4294966582,313,11068,7250,11140,1104,4294967268,95,13832,4294963468,8456,4294967128,1024,436,4294966707,4294966707,4294966707
775708837,6464348,6475523,14128,5346,6313,4294967217,4294966696,208,10951,7174,11138,1040,4294967256,99,13811,4294963541,8279,4294966860,1090,326,4294966726,4294966726,4294966726
775714835,6464474,6475449,14053,5289,6452,4294967010,4294966769,109,10921,7213,10917,953,4294967264,96,13660,4294963551,8323,4294966752,1150,341,4294966726,4294966726,4294966726
775720845,6464621,6475375,13953,5142,6488,4294966979,4294966802,1,10856,7179,10873,762,93,48,13614,4294963428,8275,4294966837,1173,434,4294966722,4294966722,4294966722
775726842,6464307,6475265,13755,5260,6787,4294966828,4294966679,4294967214,10834,7215,10849,541,208,64,13653,4294963437,8381,4294966953,1271,423,4294966721,4294966721,4294966721
775732850,6464484,6475063,13827,5115,6555,4294966599,4294966490,4294967152,10882,7191,10734,338,263,4294967294,13679,4294963555,8422,4294966878,1376,461,4294966717,4294966717,4294966717
775738840,6465014,6475478,13746,5288,6702,4294966576,4294966268,4294967136,10799,7293,10782,187,311,4294967252,13578,4294963427,8489,4294966972,1230,473,4294966720,4294966720,4294966720
775744847,6464997,6475530,13920,5166,6504,4294966504,4294965934,4294967220,10804,7207,10763,4294967265,340,4294967227,13628,4294963458,8490,4294966954,936,382,4294966715,4294966715,4294966715
775750861,6464282,6474723,13832,5351,6393,4294966670,4294965660,25,10845,7308,10836,4294967289,301,4294967223,13512,4294963385,8622,4294966786,831,441,4294966707,4294966707,4294966707
775756853,6464562,6475013,14089,5291,6313,4294966590,4294965506,109,10884,7239,10882,4294967239,234,4294967244,13552,4294963227,8811,4294966834,668,454,4294966713,4294966713,4294966713
775762856,6465107,6475274,14082,5278,6159,4294966843,4294965475,206,10835,7197,10788,38,180,4294967237,13783,4294963155,8924,4294966902,612,419,4294966713,4294966713,4294966713
775768847,6464304,6474737,13981,5409,6149,4294966929,4294965517,271,10893,7162,10841,4294967291,154,4294967244,13696,4294963033,8994,4294966947,550,423,4294966718,4294966718,4294966718
775774859,6464217,6474785,14038,5335,6119,4294967038,4294965652,315,10886,7026,10704,4294967291,196,4294967251,13775,4294963044,9035,4294966942,528,363,4294966711,4294966711,4294966711
775780863,6464359,6474622,13947,5270,6137,4294967051,4294965822,303,10858,6996,10750,116,153,4294967240,13698,4294962906,8944,4294966760,537,294,4294966709,4294966709,4294966709
775786843,6463532,6473892,13951,5195,6074,4294967023,4294965993,241,10893,6946,10881,57,99,4294967267,13696,4294963056,8952,4294966782,553,284,4294966722,4294966722,4294966722
775792849,6463745,6473910,13842,5198,6120,4294966932,4294966190,156,10900,6910,10696,107,80,4294967284,13686,4294963056,8916,4294966697,720,337,4294966717,4294966717,4294966717
775798844,6463679,6473630,13788,5143,6169,4294966865,4294966365,102,10864,6870,10778,181,89,4294967291,13633,4294963202,8883,4294966915,790,423,4294966722,4294966722,4294966722
775804836,6463321,6473213,13813,5049,6125,4294966775,4294966550,28,10894,6868,10861,251,101,32,13769,4294963367,8783,4294967193,858,544,4294966724,4294966724,4294966724
775810850,6462962,6472978,13828,5116,6173,4294966776,4294966667,3,10881,6962,10860,261,167,68,13793,4294963351,8716,4294967295,1034,720,4294966715,4294966715,4294966715
775816871,6463084,6472837,13841,5054,6210,4294966776,4294966735,4294967291,10875,7024,10859,300,229,87,13913,4294963386,8794,74,1234,837,4294966702,4294966702,4294966702
775822835,6463219,6473023,13835,5109,6191,4294966896,4294966797,21,10862,7001,10901,294,317,110,13997,4294963471,8968,4294967142,1341,831,4294966725,4294966725,4294966725
775828854,6462651,6472980,13868,5169,6180,4294966950,4294966778,70,10873,7063,10751,368,384,113,13873,4294963168,9089,4294967173,1247,840,4294966715,4294966715,4294966715
775834843,6462792,6474029,13943,5224,6226,4294967068,4294966790,109,10860,7074,10852,341,446,94,13923,4294962979,9300,248,1091,863,4294966718,4294966718,4294966718
775840862,6464132,6474996,13957,5285,6123,4294967218,4294966762,188,10983,7122,10895,359,522,72,14052,4294963100,9254,413,1079,899,4294966710,4294966710,4294966710
775846832,6464898,6475846,14002,5378,6024,51,4294966738,271,10982,7194,10960,405,623,54,13833,4294962901,9343,618,986,869,4294966726,4294966726,4294966726
775852857,6467282,6477899,14078,5523,6058,127,4294966712,324,10951,7211,10945,368,611,39,13819,4294962989,9251,662,815,719,4294966711,4294966711,4294966711
775858838,6469909,6482339,14082,5486,6050,175,4294966715,360,11015,7191,10881,428,632,5,13790,4294962919,9282,852,866,711,4294966722,4294966722,4294966722
775864850,6466392,6478724,14042,5565,5991,203,4294966706,392,11058,7175,10845,472,645,7,13711,4294963193,9120,503,973,661,4294966718,4294966718,4294966718
775870852,6462143,6470788,14017,5513,6046,193,4294966714,433,11032,7226,10851,359,645,4294967260,13733,4294963179,9117,453,955,502,4294966714,4294966714,4294966714
775876851,6459740,6467309,14022,5553,6081,219,4294966692,388,11011,7244,10894,173,589,4294967197,13669,4294962850,9205,518,1104,600,4294966717,4294966717,4294966717
775882857,6458880,6469052,14122,5608,6018,186,4294966612,335,10976,7134,11053,91,620,4294967186,13560,4294963091,9166,579,1099,510,4294966710,4294966710,4294966710
775888844,6459608,6469331,14160,5673,5943,144,4294966571,325,11007,7160,10894,195,639,4294967178,13558,4294963114,9158,382,1137,480,4294966722,4294966722,4294966722
775894848,6460660,6470028,14175,5663,5807,191,4294966543,279,11011,7295,10650,194,601,4294967154,13464,4294963135,9373,372,1220,474,4294966714,4294966714,4294966714
775900855,6462081,6471726,14368,5600,5659,149,4294966556,248,10895,7234,10724,1,551,4294967130,13399,4294963188,9161,370,1162,356,4294966716,4294966716,4294966716
775906834,6462658,6472802,14341,5675,5554,190,4294966660,171,10930,7233,10813,4294967277,557,4294967122,13389,4294963299,8963,479,1247,324,4294966727,4294966727,4294966727
775912850,6462976,6473386,14341,5687,5639,185,4294966753,149,10752,7276,10682,7,611,4294967089,13378,4294963339,9170,547,1304,305,4294966714,4294966714,4294966714
775918853,6463995,6473963,14172,5626,5798,171,4294966905,102,10796,7110,10550,4294967279,689,4294967051,13358,4294963316,9354,633,1277,347,4294966717,4294966717,4294966717
775924858,6463910,6473772,14124,5521,5993,112,4294966992,19,10783,7069,10586,23,758,4294966992,13399,4294963340,9232,639,1189,313,4294966711,4294966711,4294966711
775930856,6463677,6474043,13973,5426,6248,4294967286,4294967041,4294967229,10624,7026,10783,21,856,4294966960,13498,4294963468,9135,401,1218,276,4294966714,4294966714,4294966714
775936864,6463935,6474274,13839,5464,6307,4294967196,4294967030,4294967165,10629,6982,10864,109,940,4294966939,13498,4294963106,9230,329,1220,270,4294966709,4294966709,4294966709
775942825,6463760,6473894,13844,5426,6300,4294967057,4294966978,4294967086,10514,6984,11016,239,913,4294966902,13405,4294963275,8887,304,1061,205,4294966731,4294966731,4294966731
775948856,6464145,6474654,13872,5433,6072,4294967047,4294966859,4294967082,10405,6915,11190,237,808,4294966863,13387,4294963225,8996,436,962,43,4294966712,4294966712,4294966712
775954828,6465187,6475508,13978,5479,5952,4294967070,4294966787,4294967104,10395,6917,11201,99,771,4294966802,13418,4294963141,9148,652,840,4294967256,4294966729,4294966729,4294966729
775960870,6464021,6474205,14061,5358,5593,4294967115,4294966751,4294967141,10416,6894,11148,76,688,4294966807,13203,4294963156,9310,749,680,4294967184,4294966705,4294966705,4294966705
775966845,6463118,6473595,14029,5363,5574,4294967227,4294966787,4294967107,10451,7020,10848,149,585,4294966769,13162,4294963326,9102,686,529,4294967147,4294966721,4294966721,4294966721
775972848,6463596,6474018,14041,5259,5477,4294967242,4294966956,4294967096,10391,7131,10786,113,532,4294966794,13152,4294963336,8722,304,597,4294967149,4294966720,4294966720,4294966720
775978859,6464480,6474632,14010,5249,5456,4294967261,4294967200,4294967041,10460,7152,10905,138,447,4294966793,13142,4294963396,8502,4294967183,794,4294967173,4294966713,4294966713,4294966713
775986854,6465286,6475567,13895,5253,5549,4294967132,293,4294967017,10472,7332,11086,207,286,4294966785,13257,4294963358,8963,4294966914,886,4294967162,4294966715,4294966715,4294966715
775992837,6464934,6475929,13870,5217,5814,4294967046,558,4294966971,10455,7384,11196,208,141,4294966785,13399,4294963426,9423,4294967064,577,4294967139,4294966726,4294966726,4294966726
775998858,6464331,6475479,13867,5308,5895,4294966922,663,4294966978,10462,7445,11180,204,56,4294966824,13501,4294963530,9477,4294967082,234,4294967126,4294966712,4294966712,4294966712
776004856,6463942,6475129,13806,5375,6060,4294966891,677,4294967002,10501,7400,11238,222,4294967270,4294966795,13596,4294963473,9324,4294966949,4294967264,4294967105,4294966714,4294966714,4294966714
776012848,6464120,6475399,13881,5550,6136,4294966913,519,4294967119,10532,7342,11155,168,5,4294966761,13645,4294963344,9202,4294966861,4294967178,4294967093,4294966717,4294966717,4294966717
776018860,6465319,6477068,13857,5635,6305,4294966950,268,4294967258,10618,7326,11104,115,110,4294966701,13676,4294963306,9366,4294966904,4294967062,4294967068,4294966709,4294966709,4294966709
776026851,6464213,6475768,13960,5761,6322,4294967052,4294967205,119,10820,7416,10966,54,292,4294966659,13565,4294963242,9744,4294967133,4294966916,4294967071,4294966718,4294966718,4294966718
776032854,6465256,6476774,14017,5788,6498,4294967100,4294966927,269,10890,7423,11002,4294967249,433,4294966651,13450,4294963240,9768,102,4294966907,4294967097,4294966712,4294966712,4294966712
776040851,6465613,6476653,14140,5784,6591,4294967049,4294966565,378,11013,7406,11028,4294967161,502,4294966645,13391,4294963241,9776,367,4294967081,4294967122,4294966714,4294966714,4294966714
776048847,6464830,6476151,14285,5610,6603,4294966852,4294966283,411,11070,7492,11158,4294967093,507,4294966673,13325,4294963146,9582,517,45,4294967172,4294966718,4294966718,4294966718
776054843,6465891,6477371,14364,5404,6548,4294966708,4294966109,395,11113,7388,11281,4294967012,472,4294966739,13294,4294963005,9327,517,258,4294967187,4294966720,4294966720,4294966720
776060849,6465675,6476827,14415,5212,6482,4294966564,4294966009,336,11130,7382,11262,4294966928,401,4294966821,13316,4294962840,9298,430,425,4294967172,4294966717,4294966717,4294966717
776066851,6465466,6476588,14385,5066,6307,4294966515,4294965958,276,11211,7373,11257,4294966812,309,4294966907,13258,4294962740,9205,259,485,4294967130,4294966715,4294966715,4294966715
776072855,6465139,6476357,14346,4910,6335,4294966539,4294966013,240,11250,7328,11154,4294966725,212,4294967009,13270,4294962680,9167,0,546,4294967106,4294966713,4294966713,4294966713
776078841,6465738,6476853,14296,4849,6186,4294966632,4294966109,182,11238,7228,11147,4294966654,166,4294967091,13333,4294962746,9135,4294967084,519,4294967097,4294966720,4294966720,4294966720
776084854,6466016,6477030,14231,4755,6162,4294966785,4294966238,147,11242,7111,11178,4294966632,81,4294967233,13464,4294962874,9023,4294966925,436,4294967168,4294966714,4294966714,4294966714
776090866,6465514,6476620,14168,4737,6108,4294966913,4294966413,112,11240,7025,11280,4294966652,65,16,13508,4294962942,9060,4294966942,329,4294967284,4294966704,4294966704,4294966704
776096846,6465315,6476602,14135,4695,6203,4294967023,4294966533,60,11191,6986,11345,4294966720,50,71,13566,4294962999,8963,4294967147,195,134,4294966720,4294966720,4294966720
776102835,6465302,6476248,14102,4755,6214,4294967097,4294966591,60,11106,6967,11317,4294966751,53,97,13691,4294963011,8984,108,80,305,4294966723,4294966723,4294966723
776108864,6464624,6475708,14033,4830,6324,4294967158,4294966658,81,11047,6903,11295,4294966788,116,136,13776,4294962976,8971,343,4294967238,410,4294966704,4294966704,4294966704
776114830,6464397,6475180,14003,4890,6245,4294967186,4294966663,112,11045,6891,11236,4294966831,200,121,13785,4294962974,8968,535,4294967188,557,4294966727,4294966727,4294966727
776120852,6464414,6474923,14015,5006,6201,4294967216,4294966616,125,10953,6837,11152,4294966839,285,132,13798,4294962945,8957,696,4294967132,598,4294966713,4294966713,4294966713
776126849,6464069,6474218,14047,5113,6097,4294967206,4294966552,161,10894,6850,10945,4294966891,358,106,13723,4294962923,9040,844,4294967159,679,4294966716,4294966716,4294966716
776132835,6463768,6473754,14067,5112,6109,10,4294966518,207,10886,6863,10810,4294966884,493,56,13733,4294962956,9047,945,4294967210,575,4294966727,4294966727,4294966727
776138835,6463572,6473841,14049,5178,5986,18,4294966438,234,10710,6870,10816,4294966863,581,4294967287,13632,4294963012,9185,998,30,563,4294966727,4294966727,4294966727
776144853,6463867,6473976,14095,5196,5876,56,4294966372,258,10753,6872,10860,4294966841,607,4294967243,13573,4294963021,9188,966,150,476,4294966713,4294966713,4294966713
776150849,6463955,6473594,14089,5264,5956,75,4294966353,259,10746,6813,10778,4294966803,650,4294967199,13440,4294963092,9325,922,316,369,4294966717,4294966717,4294966717
776156838,6463830,6473298,14070,5140,5851,8,4294966331,272,10693,6944,10620,4294966756,685,4294967122,13393,4294963136,9311,821,473,293,4294966725,4294966725,4294966725
776162838,6463397,6473081,14023,5142,5813,92,4294966362,243,10635,7004,10658,4294966692,732,4294967087,13311,4294963121,9180,704,611,177,4294966722,4294966722,4294966722
776168849,6463529,6473301,13962,5154,5766,141,4294966413,209,10639,6990,10915,4294966727,750,4294967092,13158,4294963211,9034,645,813,108,4294966717,4294966717,4294966717
776174864,6463883,6473194,14034,5133,5765,155,4294966476,214,10614,6993,11194,4294966833,681,4294967076,13101,4294963258,9044,556,1048,60,4294966706,4294966706,4294966706
776180825,6463548,6473016,14046,5109,5821,158,4294966508,214,10576,7021,11262,4294966867,530,4294967065,12908,4294963242,9243,364,1226,15,4294966730,4294966730,4294966730
776186839,6462668,6472324,14043,5075,5803,197,4294966476,200,10504,6980,11191,4294966847,385,4294967106,12794,4294963219,9173,179,1401,4294967266,4294966723,4294966723,4294966723
776192858,6463168,6472817,14043,4936,5819,194,4294966449,182,10528,6993,11129,4294966775,273,4294967142,12723,4294963258,9013,37,1544,4294967235,4294966712,4294966712,4294966712
776198842,6463688,6473157,14096,4952,5787,192,4294966398,148,10533,6972,11073,4294966696,190,4294967163,12783,4294963227,8874,4294967195,1591,4294967233,4294966720,4294966720,4294966720
776204841,6462761,6472614,14076,4924,5837,207,4294966421,74,10505,6949,10944,4294966706,127,4294967199,12782,4294963321,8946,4294967046,1576,4294967278,4294966721,4294966721,4294966721
776210846,6462399,6472205,14106,4852,5823,89,4294966447,20,10537,6938,11028,4294966699,122,4294967238,12884,4294963300,9020,4294966874,1431,42,4294966720,4294966720,4294966720
776216847,6462832,6472445,14082,4815,5832,18,4294966487,4294967265,10519,6850,11027,4294966732,179,4294967288,12998,4294963083,9216,4294966793,1178,121,4294966720,4294966720,4294966720
776222857,6463340,6472763,14171,4806,5922,4294967234,4294966495,4294967217,10632,6852,11108,4294966715,129,4,13062,4294962926,9197,4294966834,827,130,4294966713,4294966713,4294966713
776228832,6463961,6473754,14208,4801,5944,4294967143,4294966494,4294967147,10660,6739,11179,4294966768,109,37,13106,4294962864,9299,4294966953,402,110,4294966728,4294966728,4294966728
776234827,6464283,6474453,14213,4845,6009,4294967070,4294966455,4294967126,10724,6731,11191,4294966870,91,113,13178,4294962809,9362,4294967085,4294967286,156,4294966731,4294966731,4294966731
776240862,6463533,6473183,14222,4967,5960,4294967007,4294966439,4294967092,10762,6770,11231,4294966955,124,105,13259,4294962936,9329,4294967157,4294967010,251,4294966713,4294966713,4294966713
776248846,6462915,6472615,14225,5081,5848,4294966972,4294966442,4294967127,10834,6827,11293,4294967078,68,163,13358,4294962983,9219,4294967128,4294966828,388,4294966715,4294966715,4294966715
776254865,6463948,6473632,14257,5097,5886,4294966999,4294966463,4294967188,10864,6844,11400,4294967119,65,189,13366,4294963014,9134,4294967125,4294966850,480,4294966707,4294966707,4294966707
776260851,6463770,6473530,14208,5229,5905,4294967054,4294966444,4294967248,10913,6825,11447,4294967052,59,202,13333,4294963054,9316,4294967149,4294966923,580,4294966718,4294966718,4294966718
776266848,6463518,6473357,14207,5238,5985,4294967144,4294966427,59,10903,6878,11493,4294967013,43,237,13355,4294963078,9364,28,4294967000,695,4294966720,4294966720,4294966720
776272834,6463182,6473056,14174,5253,6098,4294967187,4294966395,105,10847,6990,11343,4294966985,64,227,13313,4294963128,9497,145,4294967156,769,4294966727,4294966727,4294966727
776278854,6463963,6473566,14211,5291,5942,4294967222,4294966329,163,10816,6993,11311,4294966925,189,255,13297,4294963188,9432,196,75,855,4294966712,4294966712,4294966712
776284850,6463894,6473596,14209,5277,6046,4294967247,4294966289,182,10798,7068,11265,4294966851,320,288,13345,4294963153,9259,277,329,928,4294966716,4294966716,4294966716
776290867,6462912,6473048,14204,5220,5943,4294967274,4294966251,198,10703,7073,11259,4294966782,431,301,13407,4294963194,9238,362,574,930,4294966705,4294966705,4294966705
776296847,6464224,6474321,14177,5175,5890,4294967288,4294966223,214,10675,7010,11351,4294966700,496,291,13491,4294963149,9353,410,656,934,4294966717,4294966717,4294966717
776302852,6464206,6474408,14250,5170,5871,48,4294966228,217,10591,6938,11481,4294966674,507,263,13545,4294963160,9442,383,612,800,4294966713,4294966713,4294966713
776308859,6463889,6473824,14168,5149,5807,112,4294966245,232,10584,6976,11385,4294966654,540,228,13549,4294963117,9590,296,506,715,4294966710,4294966710,4294966710
776314843,6464543,6474591,14170,5197,5797,204,4294966255,266,10587,6843,11261,4294966668,599,169,13486,4294963066,9472,175,329,569,4294966720,4294966720,4294966720
776320845,6464481,6474137,14155,5264,5863,274,4294966236,300,10514,6814,11149,4294966659,615,120,13484,4294963185,9412,143,186,472,4294966717,4294966717,4294966717
776326857,6463795,6474201,14114,5296,5927,339,4294966234,401,10540,6677,11219,4294966744,613,31,13400,4294963211,9436,73,129,412,4294966713,4294966713,4294966713
776332848,6463499,6473846,14198,5307,5967,402,4294966237,443,10497,6667,11215,4294966797,592,4294967251,13086,4294963211,9300,45,156,365,4294966720,4294966720,4294966720
776338852,6463371,6473249,14202,5357,5861,441,4294966201,496,10524,6665,11279,4294966884,586,4294967154,12972,4294963294,9253,13,242,303,4294966712,4294966712,4294966712
776344832,6463280,6473398,14184,5373,5811,483,4294966176,516,10533,6688,11257,4294966908,580,4294967146,12852,4294963296,9308,12,290,288,4294966729,4294966729,4294966729
776350846,6463424,6473627,14241,5356,5807,464,4294966173,489,10491,6754,11168,4294966940,574,4294967158,12831,4294963375,9347,43,343,298,4294966715,4294966715,4294966715
776356838,6464020,6473819,14221,5329,5697,447,4294966226,467,10524,6788,11179,4294966940,503,4294967170,12852,4294963325,9352,4294967281,431,282,4294966723,4294966723,4294966723
776362842,6464519,6473975,14241,5308,5563,364,4294966281,399,10574,6903,11233,4294966951,444,4294967209,12868,4294963290,9155,4294967276,506,298,4294966721,4294966721,4294966721
776368845,6464195,6473464,14240,5281,5515,275,4294966351,357,10624,6920,11190,4294966953,336,4294967229,12935,4294963264,9135,4294967213,632,298,4294966719,4294966719,4294966719
776374828,6464320,6473642,14297,5258,5521,149,4294966454,308,10617,6912,11323,4294966957,212,12,13011,4294963223,9123,4294967187,687,304,4294966731,4294966731,4294966731
776380844,6464249,6473627,14199,5166,5456,38,4294966529,228,10681,6943,11362,4294966948,61,65,13181,4294963211,9105,4294967108,661,284,4294966718,4294966718,4294966718
776386849,6463897,6473204,14254,5165,5425,4294967222,4294966600,175,10670,6998,11365,4294966943,4294967214,141,13262,4294963163,9251,4294967028,579,230,4294966712,4294966712,4294966712
776392853,6464089,6473133,14327,5099,5395,4294967134,4294966638,96,10656,6932,11371,4294966862,4294967091,191,13359,4294963077,9286,4294966989,441,191,4294966714,4294966714,4294966714
776398851,6464555,6473337,14255,5051,5368,4294967117,4294966642,70,10671,6900,11359,4294966819,4294967004,217,13509,4294963182,9163,4294966944,338,194,4294966714,4294966714,4294966714
776404840,6464672,6473409,14247,5081,5409,4294967097,4294966625,27,10727,6901,11265,4294966790,4294967050,255,13458,4294963203,9175,4294967036,163,249,4294966722,4294966722,4294966722
776410849,6464138,6473138,14333,5103,5341,4294967090,4294966601,11,10736,6831,11346,4294966749,4294967110,239,13629,4294963355,9101,4294967109,89,294,4294966717,4294966717,4294966717
776416851,6464126,6473036,14386,5094,5317,4294967111,4294966531,23,10669,6741,11323,4294966826,4294967171,229,13597,4294963249,9106,4294967148,27,342,4294966716,4294966716,4294966716
776422839,6464220,6472885,14413,5113,5334,4294967171,4294966534,26,10620,6666,11322,4294966919,4294967265,218,13632,4294963238,9210,2,4294967267,394,4294966723,4294966723,4294966723
776428835,6463751,6472723,14443,5097,5330,4294967208,4294966499,53,10676,6654,11278,4294967034,125,146,13531,4294963205,9221,91,4294967207,375,4294966727,4294966727,4294966727
776434842,6463699,6472713,14481,5132,5324,4294967225,4294966491,77,10610,6628,11205,4294967123,260,79,13467,4294963151,9126,288,4294967171,366,4294966719,4294966719,4294966719
776440838,6464626,6473595,14479,5165,5322,4294967242,4294966466,117,10555,6643,11098,4294967207,367,44,13495,4294963142,9236,439,4294967144,347,4294966723,4294966723,4294966723
776446851,6464204,6473275,14439,5195,5269,4294967263,4294966463,131,10584,6657,11049,4294967254,517,4294967280,13386,4294963180,9315,499,4294967192,312,4294966716,4294966716,4294966716
776452863,6463655,6473706,14471,5205,5277,4294967227,4294966488,180,10566,6702,11124,15,585,4294967220,13305,4294963165,9220,518,11,279,4294966706,4294966706,4294966706
776458847,6464672,6474697,14433,5130,5297,4294967203,4294966507,178,10613,6755,11013,42,609,4294967189,13333,4294963118,9186,467,142,247,4294966716,4294966716,4294966716
776464855,6465682,6475812,14391,5166,5342,4294967132,4294966542,202,10625,6843,11115,78,611,4294967168,13311,4294963038,9144,363,274,164,4294966714,4294966714,4294966714
776470866,6466926,6476911,14397,5122,5389,4294967094,4294966582,192,10676,6802,11192,92,537,4294967177,13366,4294962956,9208,269,362,101,4294966706,4294966706,4294966706
776476829,6469375,6481684,14390,5108,5384,4294967055,4294966595,194,10696,6946,11320,73,409,4294967164,13427,4294962859,9250,139,342,39,4294966729,4294966729,4294966729
776482832,6467279,6479385,14368,5097,5414,4294967045,4294966636,205,10786,7029,11183,28,282,4294967190,13419,4294962807,9280,122,321,4294967250,4294966728,4294966728,4294966728
776488841,6463563,6471189,14317,5025,5566,4294967057,4294966618,212,10817,6976,11252,4294967256,188,4294967214,13403,4294962809,9279,90,241,4294967187,4294966721,4294966721,4294966721
776494852,6462122,6467810,14265,5038,5540,4294967062,4294966584,205,10935,6943,11209,4294967137,79,4294967264,13435,4294962864,9227,131,136,4294967129,4294966715,4294966715,4294966715
776500841,6461330,6467422,14370,4982,5513,4294967088,4294966523,204,10953,6904,11407,4294967061,4294967244,11,13430,4294962959,9210,126,104,4294967166,4294966720,4294966720,4294966720
776506847,6460891,6469425,14480,4964,5518,4294967102,4294966413,203,11032,6871,11426,4294967038,4294967150,63,13364,4294962955,9172,108,136,4294967222,4294966718,4294966718,4294966718
776512848,6461331,6469938,14558,4924,5319,4294967074,4294966322,193,11082,6897,11234,4294967077,4294967101,59,13390,4294962968,9271,39,138,24,4294966718,4294966718,4294966718
776518841,6462972,6471267,14631,4917,5238,4294967027,4294966278,196,11011,6766,11235,4294966990,4294967021,96,13367,4294962868,9237,102,87,107,4294966723,4294966723,4294966723
776524842,6464121,6472784,14660,4834,5094,4294967000,4294966288,142,11031,6698,11332,4294967011,4294967024,108,13342,4294962834,9136,197,58,161,4294966721,4294966721,4294966721
776530851,6463753,6473036,14727,4822,5164,4294966940,4294966281,101,11072,6675,11214,4294966936,4294967113,103,13309,4294962952,9273,262,38,188,4294966715,4294966715,4294966715
776536841,6464379,6473629,14661,4805,5223,4294966897,4294966255,57,11047,6596,11068,4294966962,4294967207,103,13294,4294962889,9466,252,4294967281,274,4294966718,4294966718,4294966718
776542853,6464835,6474130,14590,4757,5502,4294966864,4294966222,4294967289,11022,6486,11083,4294966943,62,72,13193,4294962895,9287,323,4294967201,313,4294966717,4294966717,4294966717
776548848,6464010,6473559,14501,4649,5600,4294966821,4294966155,4294967221,10880,6473,11103,4294967026,164,98,13202,4294962877,9101,362,4294967264,382,4294966720,4294966720,4294966720
776554837,6464253,6473444,14374,4705,5744,4294966754,4294966104,4294967161,10786,6567,11206,4294967068,228,104,13221,4294962897,8856,460,18,423,4294966720,4294966720,4294966720
776560863,6464868,6474323,14346,4736,5707,4294966715,4294966049,4294967145,10815,6494,11298,4294967178,301,128,13170,4294962961,8803,530,78,421,4294966710,4294966710,4294966710
776566844,6464426,6474157,14366,4772,5546,4294966727,4294965977,4294967148,10721,6418,11339,4294967216,448,149,13063,4294963037,9108,610,116,501,4294966720,4294966720,4294966720
776572839,6464406,6473686,14479,4778,5166,4294966860,4294965925,4294967194,10582,6527,11305,4294967201,525,177,13009,4294962959,9287,695,146,492,4294966722,4294966722,4294966722
776578848,6464612,6473925,14545,4777,4942,4294967084,4294965884,4294967278,10522,6586,11249,4294967183,516,220,12998,4294962936,9145,740,135,452,4294966719,4294966719,4294966719
776584837,6464555,6473988,14545,4917,4795,4294967287,4294965990,17,10443,6677,11098,4294967191,454,248,13016,4294962920,9051,648,203,379,4294966725,4294966725,4294966725
776590835,6464937,6474346,14481,4818,4743,94,4294966245,79,10494,6692,11088,4294967177,397,250,13014,4294963000,9105,505,221,364,4294966727,4294966727,4294966727
776596868,6465823,6474956,14404,4864,4816,73,4294966612,76,10504,6566,11077,4294967205,281,211,13149,4294963151,9174,301,216,300,4294966707,4294966707,4294966707
776602850,6465530,6474628,14303,4934,4885,4294967291,4294966982,41,10504,6586,11116,4294967249,157,147,13235,4294963155,9233,133,148,301,4294966719,4294966719,4294966719
776608838,6464998,6474605,14220,4940,5212,4294967205,4294967264,43,10488,6550,11166,4294967270,60,98,13306,4294963043,9194,31,27,277,4294966725,4294966725,4294966725
776614851,6465015,6474755,14100,5000,5497,4294967167,36,50,10510,6562,11195,13,4294967253,41,13326,4294963017,9247,31,4294967126,189,4294966718,4294966718,4294966718
776620847,6465138,6474605,14045,5030,5634,4294967135,4294967271,61,10482,6613,11263,33,4294967202,4294967289,13336,4294962969,9389,66,4294966998,136,4294966718,4294966718,4294966718
776626843,6464955,6474731,14030,5072,5649,4294967119,4294967117,81,10547,6597,11240,50,4294967111,4294967278,13400,4294963008,9282,172,4294966872,126,4294966720,4294966720,4294966720
776632838,6465392,6475218,14118,5055,5666,4294967173,4294966898,101,10629,6545,11173,88,4294967095,4294967276,13398,4294963029,9175,299,4294966811,155,4294966720,4294966720,4294966720
776638839,6466548,6476337,14227,5040,5577,4294967246,4294966648,87,10709,6557,11108,77,4294967089,4294967295,13439,4294963044,9134,341,4294966858,218,4294966722,4294966722,4294966722
776644845,6466487,6476348,14328,4995,5597,8,4294966450,108,10842,6604,11188,4,4294967126,16,13420,4294963071,9148,480,4294966947,280,4294966719,4294966719,4294966719
776650856,6465570,6475978,14421,5079,5478,16,4294966315,120,10860,6626,11304,9,4294967119,49,13452,4294963055,8955,489,4294967119,349,4294966711,4294966711,4294966711
776656835,6466023,6476486,14574,5087,5377,4294967262,4294966216,106,10952,6666,11264,4294967283,4294967158,96,13378,4294962934,8971,526,21,401,4294966724,4294966724,4294966724
776662846,6466669,6476619,14668,5042,5237,4294967217,4294966185,99,11055,6679,11280,7,4294967185,148,13466,4294962917,9028,515,125,408,4294966721,4294966721,4294966721
776668843,6466715,6477163,14744,5059,5186,4294967188,4294966196,108,11052,6669,11263,4294967223,4294967239,170,13460,4294962933,9127,518,166,392,4294966718,4294966718,4294966718
776674848,6466823,6477374,14699,5106,5187,4294967165,4294966257,88,11059,6653,11348,4294967122,7,179,13453,4294962922,9130,542,185,392,4294966717,4294966717,4294966717
776680857,6466797,6477157,14839,5048,5221,4294967207,4294966398,95,11087,6641,11392,4294967128,87,178,13437,4294962961,9164,535,193,329,4294966710,4294966710,4294966710
776686855,6466066,6476472,14758,4996,5037,4294967176,4294966442,94,11023,6628,11344,4294967126,182,144,13387,4294963012,9122,522,214,347,4294966713,4294966713,4294966713
776692865,6465858,6476456,14775,5029,5164,4294967224,4294966521,63,10923,6566,11490,4294967178,224,161,13409,4294962980,9112,501,220,373,4294966709,4294966709,4294966709
776698843,6466234,6476222,14715,5007,5168,4294967278,4294966634,58,10916,6574,11404,4294967216,242,168,13407,4294963075,9088,466,240,415,4294966717,4294966717,4294966717
776704849,6465670,6475711,14715,4987,5194,4294967291,4294966715,37,10832,6546,11427,4294967259,291,122,13378,4294963047,9138,442,254,421,4294966716,4294966716,4294966716
776710837,6465258,6475521,14653,4969,5284,4294967264,4294966793,10,10784,6568,11399,26,328,117,13363,4294962970,9281,387,191,440,4294966725,4294966725,4294966725
776716845,6464975,6475027,14542,4964,5223,4294967266,4294966828,4294967290,10738,6551,11411,63,359,118,13336,4294962952,9225,372,126,392,4294966720,4294966720,4294966720
776722841,6465096,6474849,14484,5028,5258,4294967269,4294966856,4294967284,10724,6534,11374,71,375,90,13366,4294963021,9151,369,113,393,4294966724,4294966724,4294966724
776728845,6464606,6474404,14447,5051,5295,4294967273,4294966870,1,10681,6592,11349,39,376,80,13344,4294962989,9216,377,80,353,4294966722,4294966722,4294966722
776734850,6464650,6474237,14457,5015,5297,9,4294966826,14,10703,6606,11420,3,343,52,13395,4294963044,9305,396,31,328,4294966716,4294966716,4294966716
776740848,6465012,6474016,14476,5098,5281,47,4294966790,51,10664,6612,11289,4294967288,327,74,13375,4294963024,9290,410,11,299,4294966718,4294966718,4294966718
776746850,6464780,6473887,14454,5069,5270,96,4294966747,52,10743,6612,11394,12,322,63,13462,4294962999,9264,406,6,278,4294966716,4294966716,4294966716
776752854,6464861,6473792,14480,5115,5261,85,4294966721,70,10751,6677,11418,10,293,96,13436,4294962999,9324,406,4294967273,266,4294966716,4294966716,4294966716
776758851,6464802,6473233,14445,5091,5230,106,4294966684,73,10749,6745,11447,4294967287,255,101,13356,4294962962,9287,453,4294967252,228,4294966717,4294966717,4294966717
776764834,6464412,6472944,14471,5131,5093,129,4294966665,97,10759,6674,11464,4294967283,228,113,13465,4294962989,9188,469,0,216,4294966726,4294966726,4294966726
776770860,6464154,6472842,14454,5206,5153,149,4294966645,107,10754,6653,11379,4294967275,190,113,13474,4294963077,9142,427,103,241,4294966709,4294966709,4294966709
776776844,6464753,6473162,14405,5076,5129,109,4294966668,117,10800,6620,11442,8,162,135,13464,4294963040,9357,392,193,274,4294966719,4294966719,4294966719
776782839,6464622,6473042,14346,5057,5133,96,4294966601,139,10821,6606,11418,4294967250,177,120,13414,4294963019,9026,413,210,278,4294966722,4294966722,4294966722
776788842,6464145,6472536,14394,5102,5226,50,4294966578,121,10827,6542,11466,4294967269,210,119,13482,4294963007,8979,465,254,303,4294966718,4294966718,4294966718
776794842,6464227,6472649,14404,5102,5261,1,4294966493,160,10838,6476,11580,4,295,97,13415,4294963073,9187,482,288,342,4294966720,4294966720,4294966720
776800845,6464593,6472854,14488,5102,5233,3,4294966322,201,10770,6511,11515,16,309,72,13305,4294963021,9307,523,254,316,4294966721,4294966721,4294966721
776806851,6464744,6473371,14572,5062,5130,32,4294966141,237,10741,6511,11480,4294967261,329,35,13324,4294962904,9328,667,216,293,4294966715,4294966715,4294966715
776812857,6464111,6472750,14535,5033,5072,63,4294966000,234,10745,6487,11329,4294967165,314,23,13311,4294962974,9092,762,216,238,4294966709,4294966709,4294966709
776818865,6464469,6473150,14664,5018,4962,63,4294965975,238,10721,6498,11286,4294967109,358,7,13296,4294963034,9064,790,223,223,4294966706,4294966706,4294966706
776824852,6464747,6473418,14575,4927,4918,47,4294966039,242,10683,6461,11214,4294967075,341,4294967261,13228,4294963066,9111,714,237,199,4294966713,4294966713,4294966713
776830843,6464564,6473344,14565,4933,4805,4294967259,4294966156,246,10667,6447,11271,4294967105,314,4294967231,13246,4294962944,9123,672,222,244,4294966720,4294966720,4294966720
776836839,6465158,6474039,14597,4866,4862,4294967235,4294966260,221,10646,6496,11289,4294967105,283,4294967231,13202,4294962972,9252,652,190,176,4294966724,4294966724,4294966724
776842841,6465412,6474325,14608,4863,4902,4294967251,4294966350,223,10705,6478,11243,4294967109,223,4294967216,13205,4294962941,9151,631,129,189,4294966721,4294966721,4294966721
776848849,6465013,6473758,14549,4880,4896,4294967228,4294966425,174,10640,6494,11249,4294967142,164,4294967212,13227,4294962905,9329,662,39,103,4294966716,4294966716,4294966716
776854851,6464996,6473497,14472,4920,4917,4294967242,4294966497,133,10655,6501,11185,4294967175,153,4294967220,13196,4294962965,9306,674,4294967266,103,4294966713,4294966713,4294966713
776860868,6465037,6473541,14472,4921,4926,4294967247,4294966541,114,10731,6430,11287,4294967238,126,4294967212,13243,4294963000,9179,651,4294967201,91,4294966703,4294966703,4294966703
776866852,6464781,6473191,14518,4973,4987,4294967238,4294966564,92,10687,6474,11210,50,130,4294967236,13367,4294963049,9236,696,4294967179,99,4294966715,4294966715,4294966715
776872848,6464442,6473363,14511,5021,4925,4294967282,4294966584,112,10704,6500,11225,108,145,4294967218,13365,4294963046,9187,722,4294967191,165,4294966719,4294966719,4294966719
776878834,6465094,6473841,14492,5016,4991,4294967286,4294966533,130,10750,6466,11214,124,147,4294967230,13329,4294963019,9247,825,4294967122,200,4294966727,4294966727,4294966727
776884830,6465340,6473673,14574,5029,4951,13,4294966498,142,10762,6473,11279,180,169,4294967234,13386,4294963080,9175,864,4294967115,214,4294966730,4294966730,4294966730
776890831,6464603,6473096,14611,5106,4963,7,4294966485,150,10819,6509,11265,231,187,4294967241,13512,4294963040,9115,894,4294967148,208,4294966729,4294966729,4294966729
776896843,6464465,6472673,14627,4978,4908,4294967266,4294966448,161,10892,6587,11291,221,192,4294967227,13591,4294963031,9071,915,4294967175,255,4294966720,4294966720,4294966720
776902848,6464941,6473135,14635,4983,4915,4294967246,4294966439,130,10909,6530,11204,140,193,4294967249,13526,4294963013,9055,912,4294967259,183,4294966715,4294966715,4294966715
776908843,6464220,6472775,14624,4941,4914,4294967220,4294966435,148,10972,6575,11287,67,171,4294967238,13518,4294963021,9061,923,16,137,4294966721,4294966721,4294966721
776914843,6464622,6472901,14680,4938,4954,4294967220,4294966430,136,11043,6568,11298,4294967277,166,4294967254,13471,4294963049,9202,913,50,115,4294966720,4294966720,4294966720
776920861,6465037,6473150,14655,4876,4893,4294967210,4294966401,121,10967,6569,11283,4294967260,197,4294967241,13428,4294963086,9065,923,92,82,4294966709,4294966709,4294966709
776926843,6464464,6473227,14647,4878,4862,4294967248,4294966388,84,10939,6626,11318,4294967229,209,4294967266,13376,4294962980,9116,982,156,254,4294966717,4294966717,4294966717
776932833,6464747,6473463,14681,4853,4830,4294967277,4294966370,72,10950,6582,11403,4294967203,209,4294967248,13381,4294963194,9066,937,121,135,4294966727,4294966727,4294966727
776938855,6465132,6473587,14691,4898,4847,15,4294966360,64,10911,6590,11298,4294967269,259,4294967256,13371,4294963216,9090,935,195,131,4294966713,4294966713,4294966713
776944851,6465016,6473721,14687,4888,4878,16,4294966363,66,10907,6583,11257,4294967241,339,4294967254,13378,4294963226,8979,957,207,119,4294966717,4294966717,4294966717
776950853,6464579,6473459,14670,4884,4811,27,4294966327,88,10839,6568,11344,4294967250,391,4294967277,13344,4294963203,9011,922,187,177,4294966713,4294966713,4294966713
776956843,6464753,6473584,14686,4891,4904,52,4294966340,97,10807,6526,11313,4294967292,441,4294967261,13431,4294963118,9127,903,182,173,4294966719,4294966719,4294966719
776962846,6464794,6473278,14718,4910,4815,45,4294966332,82,10819,6548,11323,45,480,4294967281,13359,4294963187,8985,855,164,177,4294966720,4294966720,4294966720
776968860,6464654,6473229,14754,4911,4891,9,4294966344,99,10770,6582,11342,35,499,4294967274,13423,4294963150,9005,885,146,187,4294966710,4294966710,4294966710
776974847,6465136,6473539,14755,4912,4853,7,4294966403,77,10809,6560,11240,70,503,4294967291,13458,4294963134,9097,938,113,188,4294966718,4294966718,4294966718
776980853,6465081,6473540,14768,4902,4872,4294967282,4294966432,93,10785,6508,11296,72,529,4294967262,13480,4294963164,9060,960,66,186,4294966715,4294966715,4294966715
776986846,6464941,6473143,14798,4842,4728,7,4294966480,64,10815,6538,11259,138,486,4294967253,13462,4294963147,9004,862,75,178,4294966718,4294966718,4294966718
776992848,6465342,6473712,14763,4854,4792,4294967282,4294966511,60,10778,6477,11329,154,465,4294967275,13424,4294963127,8976,782,106,167,4294966716,4294966716,4294966716
776998848,6465273,6473404,14721,4820,4741,4294967276,4294966543,60,10717,6515,11294,150,423,4294967275,13389,4294963126,9051,823,95,142,4294966717,4294966717,4294966717
777004865,6464580,6472364,14668,4874,4856,4294967210,4294966566,42,10793,6497,11319,136,395,19,13443,4294963152,9023,869,121,158,4294966705,4294966705,4294966705
777010845,6464311,6472365,14686,4820,4814,4294967205,4294966565,65,10815,6526,11276,118,383,40,13490,4294963187,8965,850,140,152,4294966722,4294966722,4294966722
777016862,6464539,6472601,14675,4767,4817,4294967210,4294966537,26,10832,6555,11350,134,355,46,13442,4294963095,8932,835,160,163,4294966706,4294966706,4294966706
777022845,6465109,6472598,14646,4710,4829,4294967201,4294966517,13,10833,6501,11361,134,374,64,13453,4294963178,9047,835,175,153,4294966722,4294966722,4294966722
777028827,6464658,6472157,14661,4764,4826,4294967239,4294966488,16,10839,6545,11336,93,343,41,13343,4294963108,9166,825,199,183,4294966731,4294966731,4294966731
777034855,6465009,6472802,14724,4786,4757,4294967224,4294966495,6,10847,6487,11371,67,361,84,13421,4294963113,9172,840,189,171,4294966713,4294966713,4294966713
777040848,6465318,6472851,14753,4776,4734,4294967257,4294966483,29,10868,6555,11263,15,333,60,13394,4294963154,9108,818,211,194,4294966718,4294966718,4294966718
777046844,6464695,6472249,14725,4796,4614,4294967232,4294966476,42,10861,6535,11364,4294967278,348,31,13377,4294963162,9207,781,230,181,4294966721,4294966721,4294966721
777052859,6464522,6472828,14780,4790,4670,4294967255,4294966505,62,10777,6501,11278,4294967276,379,27,13362,4294963133,9053,803,222,201,4294966711,4294966711,4294966711
777058849,6465209,6473912,14820,4790,4584,4294967264,4294966515,64,10789,6476,11401,4294967286,411,4294967295,13301,4294963130,9116,820,238,208,4294966714,4294966714,4294966714
777064840,6465822,6475501,14893,4752,4636,4294967248,4294966517,57,10792,6441,11321,63,483,19,13337,4294963112,9079,773,221,191,4294966720,4294966720,4294966720
777070852,6467075,6477516,14913,4837,4639,4294967185,4294966605,44,10773,6509,11378,141,528,4294967279,13368,4294963205,9125,740,209,190,4294966715,4294966715,4294966715
777076838,6469325,6482047,14772,4719,4655,4294967221,4294966567,55,10781,6502,11340,161,535,8,13359,4294963148,9114,715,217,223,4294966725,4294966725,4294966725
777082848,6468161,6481675,14744,4791,4687,9,4294966586,63,10700,6496,11349,140,524,4294967285,13377,4294963187,9156,726,204,245,4294966717,4294966717,4294966717
777088851,6464823,6472625,14700,4830,4829,69,4294966594,82,10757,6489,11368,155,499,2,13360,4294963209,9088,793,175,222,4294966713,4294966713,4294966713
777094840,6463405,6468040,14674,4936,4874,71,4294966592,61,10703,6521,11405,127,457,25,13377,4294963238,9103,813,159,239,4294966724,4294966724,4294966724
777100850,6462028,6465491,14674,4897,4763,61,4294966561,90,10753,6547,11497,89,400,45,13312,4294963234,9103,867,110,238,4294966713,4294966713,4294966713
777106857,6461466,6467664,14728,4892,4814,67,4294966513,136,10774,6467,11424,119,382,42,13344,4294963232,9129,872,118,245,4294966713,4294966713,4294966713
777112865,6462263,6468891,14739,4935,4723,89,4294966445,184,10821,6462,11360,97,360,10,13378,4294963207,9212,860,130,260,4294966708,4294966708,4294966708
777118848,6463585,6470947,14758,4874,4607,19,4294966418,202,10827,6508,11290,29,283,4294967294,13339,4294963185,9106,835,98,240,4294966715,4294966715,4294966715
777124845,6464502,6472117,14833,4843,4380,4294967282,4294966412,232,10765,6467,11382,4294967250,233,4294967290,13364,4294963163,9046,858,121,226,4294966717,4294966717,4294966717
777130849,6464301,6472446,14843,4758,4305,4294967248,4294966464,180,10754,6446,11366,4294967225,204,4294967266,13383,4294963189,9059,862,98,227,4294966714,4294966714,4294966714
777136848,6465126,6473141,14904,4752,4433,4294967277,4294966534,131,10821,6401,11348,4294967203,209,4294967287,13435,4294963228,9252,860,55,209,4294966716,4294966716,4294966716
777142846,6465155,6473096,14871,4724,4632,4294967267,4294966609,84,10705,6450,11362,4294967275,229,4294967294,13436,4294963148,9310,827,43,228,4294966716,4294966716,4294966716
777148842,6464843,6472908,14749,4639,4876,4294967169,4294966662,4294967286,10771,6451,11401,21,162,1,13435,4294963108,9231,800,41,244,4294966720,4294966720,4294966720
777154839,6465443,6473660,14608,4686,5085,4294967092,4294966647,4294967201,10736,6479,11410,27,158,4294967271,13455,4294963166,8960,842,32,239,4294966725,4294966725,4294966725
777160846,6465896,6473892,14536,4817,5162,4294967030,4294966605,4294967191,10776,6433,11451,92,154,20,13313,4294963280,9054,942,49,257,4294966719,4294966719,4294966719
777166866,6465884,6473669,14508,4842,4919,4294966989,4294966504,4294967207,10786,6366,11635,178,152,34,13278,4294963279,9264,1040,20,277,4294966706,4294966706,4294966706
777172849,6465556,6473901,14667,4880,4646,4294967059,4294966346,4294967277,10739,6327,11678,161,184,39,13269,4294963236,9447,1120,4294967267,295,4294966714,4294966714,4294966714
777178845,6465745,6473815,14780,4860,4371,4294967285,4294966227,12,10720,6371,11599,77,114,74,13213,4294963129,9310,1193,4294967199,239,4294966717,4294966717,4294966717
777184841,6465943,6474045,14906,4835,4196,211,4294966202,65,10768,6479,11429,99,24,96,13207,4294963123,9212,1227,4294967145,191,4294966721,4294966721,4294966721
777190856,6465894,6474568,14894,4827,4029,349,4294966384,52,10798,6469,11255,52,15,120,13236,4294963190,9326,1182,4294967170,191,4294966710,4294966710,4294966710
777196851,6466153,6474699,14884,4850,4070,295,4294966681,58,10794,6453,11226,97,18,103,13260,4294963320,9305,1087,4294967233,204,4294966712,4294966712,4294966712
777202851,6465985,6474475,14808,4861,4296,90,4294967023,13,10790,6412,11325,102,14,93,13299,4294963368,9305,964,4294967229,226,4294966714,4294966714,4294966714
777208851,6465461,6474059,14802,4909,4399,4294967202,4294967264,4294967289,10772,6485,11384,117,40,39,13418,4294963318,9199,900,4294967202,273,4294966718,4294966718,4294966718
777214855,6465678,6474581,14759,4905,4647,4294967131,17,3,10718,6458,11419,188,33,33,13452,4294963307,9264,893,4294967191,354,4294966712,4294966712,4294966712
777220858,6466032,6474712,14618,4866,4803,4294967131,4294967240,4294967271,10656,6476,11485,259,4294967257,25,13319,4294963104,9343,1210,4294967042,457,4294966712,4294966712,4294966712
777226845,6465471,6474536,14631,4868,4714,4294967201,4294967068,0,10643,6530,11442,318,4294967243,19,13786,4294963520,9161,1932,4294966761,676,4294966717,4294966717,4294966717
777232856,6465753,6474943,14634,4881,4873,36,4294966818,4,10675,6571,11509,440,4294967251,64,13565,4294963233,9142,1208,4294966987,486,4294966713,4294966713,4294966713
777238845,6466176,6475340,14666,4917,4848,169,4294966592,19,10858,6503,11420,359,4294967224,39,13756,4294963450,8948,1070,4294967140,424,4294966722,4294966722,4294966722
777244840,6466338,6475859,14696,4910,4855,226,4294966369,23,10905,6561,11404,337,4294967257,64,13562,4294963230,9078,944,4294967254,480,4294966719,4294966719,4294966719
777250857,6466207,6475995,14859,4981,4693,212,4294966240,38,10924,6615,11395,255,57,94,13615,4294963296,9035,1101,4294967275,522,4294966711,4294966711,4294966711
777256845,6467009,6477065,14911,4880,4616,139,4294966150,59,10906,6555,11395,204,159,114,13639,4294963329,8915,908,72,477,4294966717,4294966717,4294966717
777262836,6467223,6477191,14929,4937,4587,87,4294966172,65,10858,6537,11386,175,187,127,13562,4294963275,9081,836,171,437,4294966723,4294966723,4294966723
777268840,6466785,6477037,14992,4829,4480,48,4294966199,65,10867,6495,11348,61,327,144,13562,4294963316,9126,791,254,394,4294966720,4294966720,4294966720
777274849,6467220,6477285,14916,4871,4484,47,4294966282,76,10906,6550,11277,69,343,166,13505,4294963303,9130,746,276,350,4294966717,4294966717,4294966717
777280840,6467258,6477060,14892,4902,4374,46,4294966347,54,10857,6534,11246,39,381,159,13462,4294963322,9142,704,294,315,4294966720,4294966720,4294966720
777286848,6466532,6476431,14873,4839,4411,42,4294966415,48,10806,6523,11310,4294967270,436,141,13406,4294963360,9183,722,300,290,4294966719,4294966719,4294966719
777292851,6466651,6476666,14828,4910,4316,25,4294966456,42,10759,6495,11361,20,481,167,13459,4294963395,9189,764,284,268,4294966716,4294966716,4294966716
777298846,6466876,6476320,14871,4946,4373,50,4294966497,38,10724,6452,11280,56,457,131,13404,4294963404,9131,761,241,281,4294966716,4294966716,4294966716
777304844,6466592,6476123,14819,4849,4403,31,4294966551,36,10703,6450,11350,131,454,142,13330,4294963428,9122,785,217,288,4294966716,4294966716,4294966716
777310850,6466262,6475479,14800,4893,4385,6,4294966583,32,10677,6447,11319,161,432,119,13314,4294963465,9174,715,225,359,4294966713,4294966713,4294966713
777316836,6466274,6475042,14756,4928,4338,4294967284,4294966622,20,10648,6451,11377,204,428,115,13386,4294963382,9085,725,193,345,4294966727,4294966727,4294966727
777322838,6465883,6474670,14821,4897,4295,4294967265,4294966644,21,10635,6402,11354,241,425,67,13340,4294963451,9151,769,180,382,4294966722,4294966722,4294966722
777328843,6465313,6474325,14789,4925,4340,4294967265,4294966636,22,10629,6449,11354,296,413,60,13390,4294963423,9191,744,143,338,4294966719,4294966719,4294966719
777334856,6465605,6474326,14788,4905,4354,4294967247,4294966620,37,10601,6469,11423,227,440,49,13386,4294963426,9131,662,159,333,4294966712,4294966712,4294966712
777340845,6465905,6474033,14872,4958,4398,4294967268,4294966606,48,10634,6446,11464,187,440,42,13393,4294963350,9230,647,167,333,4294966716,4294966716,4294966716
777346842,6465673,6473759,14839,4928,4425,4294967265,4294966602,37,10608,6485,11363,147,422,62,13417,4294963386,9212,663,134,316,4294966722,4294966722,4294966722
777352857,6465024,6473148,14833,4939,4303,4294967281,4294966580,45,10673,6533,11409,89,422,69,13386,4294963388,9103,682,99,304,4294966709,4294966709,4294966709
777358864,6465398,6473003,14866,4933,4390,9,4294966581,53,10695,6563,11414,99,378,61,13434,4294963363,9192,667,118,289,4294966706,4294966706,4294966706
777364837,6465385,6472991,14875,4919,4239,46,4294966592,60,10726,6510,11432,136,348,89,13426,4294963348,9196,721,150,369,4294966721,4294966721,4294966721
777370835,6464806,6472952,14869,4936,4099,124,4294966620,86,10689,6480,11448,208,309,88,13458,4294963362,9235,755,125,364,4294966726,4294966726,4294966726
777376856,6465732,6473157,14858,4981,4196,157,4294966677,84,10805,6551,11398,245,255,101,13496,4294963410,9286,695,133,313,4294966711,4294966711,4294966711
777382842,6465555,6472736,14811,4991,4241,163,4294966736,100,10761,6472,11339,156,258,117,13487,4294963369,9281,694,139,343,4294966718,4294966718,4294966718
777388843,6465175,6472762,14763,4978,4329,94,4294966776,116,10742,6458,11395,68,305,100,13555,4294963329,9146,641,131,323,4294966719,4294966719,4294966719
777394851,6465424,6473128,14699,4951,4409,14,4294966743,150,10838,6426,11557,67,354,83,13557,4294963425,9070,656,180,310,4294966713,4294966713,4294966713
777400839,6466241,6473813,14822,4970,4428,4294967256,4294966657,172,10774,6425,11584,111,455,71,13526,4294963392,9215,660,157,314,4294966724,4294966724,4294966724
777406851,6466479,6474115,14880,4911,4436,4294967260,4294966502,177,10767,6348,11611,121,510,54,13496,4294963370,9349,684,208,252,4294966716,4294966716,4294966716
777412848,6466241,6473826,14898,4791,4296,0,4294966368,158,10716,6397,11634,132,526,8,13358,4294963322,9347,739,234,199,4294966717,4294966717,4294966717
777418850,6466342,6473870,14972,4805,4186,68,4294966289,164,10705,6444,11566,107,471,5,13386,4294963316,9191,743,247,185,4294966717,4294966717,4294966717
777424858,6466190,6473782,15014,4803,4056,95,4294966299,138,10715,6471,11487,105,445,4294967295,13343,4294963322,9207,721,260,157,4294966710,4294966710,4294966710
777430853,6465496,6472962,15024,4798,4113,71,4294966426,113,10722,6421,11394,135,418,14,13382,4294963382,9157,686,303,160,4294966712,4294966712,4294966712
777436870,6466012,6473751,14928,4751,4142,4294967279,4294966543,99,10688,6386,11430,118,386,61,13333,4294963389,9160,620,299,183,4294966700,4294966700,4294966700
777442840,6466395,6473950,14934,4770,4260,4294967193,4294966610,72,10670,6334,11464,144,302,4,13412,4294963350,9222,551,273,197,4294966722,4294966722,4294966722
777448848,6466024,6473671,14907,4729,4301,4294967160,4294966699,43,10606,6304,11523,308,201,12,13327,4294963342,9217,505,257,175,4294966718,4294966718,4294966718
777454844,6466355,6473720,14809,4771,4419,4294967159,4294966703,29,10709,6365,11347,333,205,4294967287,13356,4294963377,9256,457,221,139,4294966722,4294966722,4294966722
777460854,6466270,6473861,14815,4812,4411,4294967169,4294966675,38,10650,6372,11378,301,273,4294967265,13351,4294963404,9263,481,187,151,4294966712,4294966712,4294966712
777466858,6466182,6473763,14804,4884,4401,4294967227,4294966666,68,10690,6378,11415,377,288,4294967277,13404,4294963379,9290,534,167,164,4294966712,4294966712,4294966712
777472846,6466074,6473917,14820,4922,4264,24,4294966654,97,10684,6380,11415,432,309,4294967265,13438,4294963445,9245,547,161,174,4294966719,4294966719,4294966719
777478864,6466240,6474159,14889,4944,4238,60,4294966662,135,10689,6488,11491,510,337,28,13415,4294963377,9255,585,111,202,4294966709,4294966709,4294966709
777484846,6466603,6474033,14879,4948,4399,111,4294966634,147,10770,6501,11489,441,360,4294967274,13469,4294963334,9207,662,122,219,4294966716,4294966716,4294966716
777490858,6466150,6473967,14918,4964,4242,120,4294966643,172,10750,6517,11505,417,367,13,13537,4294963375,9107,646,134,238,4294966710,4294966710,4294966710
777496847,6466124,6473803,14987,4932,4256,59,4294966639,164,10792,6529,11441,365,376,1,13513,4294963366,9169,637,166,260,4294966719,4294966719,4294966719
777502856,6466358,6473913,14939,4904,4311,22,4294966653,141,10858,6512,11397,397,380,37,13513,4294963375,9101,583,214,256,4294966711,4294966711,4294966711
777508853,6465698,6473503,14956,4879,4296,4294967262,4294966671,135,10815,6478,11448,346,380,5,13525,4294963378,9172,616,250,218,4294966717,4294966717,4294966717
777514846,6465831,6473817,14955,4789,4187,4294967234,4294966647,125,10867,6485,11290,273,383,16,13480,4294963385,9201,514,296,197,4294966716,4294966716,4294966716
777520842,6466009,6473611,14963,4776,4159,4294967261,4294966640,117,10799,6493,11414,206,402,7,13464,4294963400,9161,473,341,204,4294966723,4294966723,4294966723
777526847,6465527,6473488,14995,4732,4150,4294967264,4294966647,66,10811,6470,11359,194,396,15,13467,4294963386,9223,465,361,160,4294966716,4294966716,4294966716
777532858,6465387,6473158,14959,4703,4159,4294967264,4294966642,68,10790,6402,11389,212,441,30,13436,4294963391,9222,488,329,181,4294966709,4294966709,4294966709
777538852,6465782,6473301,14937,4685,4293,4294967284,4294966630,40,10795,6497,11377,210,462,8,13394,4294963426,9171,516,360,187,4294966712,4294966712,4294966712
777544842,6465719,6473393,14955,4718,4196,8,4294966644,22,10727,6471,11477,214,502,12,13362,4294963457,9159,530,382,191,4294966723,4294966723,4294966723
777550844,6465242,6473272,14915,4727,4180,4294967292,4294966636,39,10771,6426,11423,167,549,3,13373,4294963415,9132,503,377,196,4294966719,4294966719,4294966719
777556851,6465532,6473122,14878,4710,4212,4294967291,4294966646,53,10737,6416,11381,147,565,7,13321,4294963436,9203,486,371,194,4294966714,4294966714,4294966714
777562834,6466034,6473617,14847,4728,4230,9,4294966641,34,10683,6470,11388,163,569,15,13367,4294963433,9168,446,375,193,4294966726,4294966726,4294966726
777568847,6465470,6473563,14836,4724,4209,28,4294966654,45,10706,6416,11379,159,580,2,13323,4294963431,9124,438,396,194,4294966715,4294966715,4294966715
777574834,6465662,6473751,14908,4744,4213,68,4294966676,72,10691,6422,11402,161,552,31,13362,4294963393,9105,405,376,209,4294966725,4294966725,4294966725
777580846,6466189,6473647,14929,4708,4134,86,4294966696,61,10657,6362,11376,140,548,19,13398,4294963368,9154,399,360,203,4294966716,4294966716,4294966716
777586848,6465596,6473209,14895,4723,4191,94,4294966727,37,10712,6337,11427,145,536,37,13365,4294963384,9145,386,383,229,4294966717,4294966717,4294966717
777592846,6465067,6472708,14901,4740,4116,115,4294966805,53,10694,6378,11467,129,509,56,13350,4294963343,9242,396,369,244,4294966720,4294966720,4294966720
777598860,6465547,6472312,14926,4733,4155,73,4294966817,39,10710,6424,11483,131,462,56,13418,4294963398,9239,406,373,248,4294966707,4294966707,4294966707
777604836,6465429,6472595,14897,4686,4120,67,4294966831,37,10689,6436,11488,111,437,58,13362,4294963381,9136,411,366,252,4294966726,4294966726,4294966726
777610843,6464835,6471734,14852,4692,4156,102,4294966817,27,10655,6434,11493,144,432,60,13336,4294963346,9226,404,372,251,4294966723,4294966723,4294966723
777616851,6464823,6471962,14867,4704,4164,100,4294966811,35,10687,6452,11580,94,370,82,13397,4294963336,9139,394,379,268,4294966718,4294966718,4294966718
777622852,6465052,6471982,14940,4665,4251,111,4294966789,22,10662,6424,11619,141,327,121,13436,4294963376,9155,412,373,272,4294966717,4294966717,4294966717
777628850,6464994,6471867,14930,4632,4133,100,4294966772,55,10717,6414,11549,68,290,114,13391,4294963363,9185,399,390,264,4294966716,4294966716,4294966716
777634835,6464854,6472120,15008,4653,4080,95,4294966739,37,10717,6441,11556,31,275,101,13387,4294963403,9147,391,389,266,4294966724,4294966724,4294966724
777640844,6465555,6472800,14951,4691,4070,94,4294966742,34,10767,6447,11520,4294967285,243,90,13401,4294963380,9269,395,375,259,4294966717,4294966717,4294966717
777646841,6465152,6473267,14982,4688,4051,60,4294966735,34,10735,6402,11555,4294967254,207,101,13353,4294963337,9231,401,358,292,4294966721,4294966721,4294966721
777652850,6465424,6474434,15007,4694,4018,34,4294966705,30,10747,6387,11518,4294967265,256,117,13325,4294963339,9240,427,317,267,4294966719,4294966719,4294966719
777658854,6466873,6477324,15033,4734,3986,10,4294966704,23,10733,6346,11537,4294967211,240,82,13282,4294963323,9282,431,308,296,4294966714,4294966714,4294966714
777664837,6468554,6481128,15027,4691,4019,4294967285,4294966700,2,10698,6388,11523,4294967236,315,95,13317,4294963429,9226,453,291,302,4294966723,4294966723,4294966723
777670836,6468322,6483072,14969,4734,4094,4294967275,4294966686,4294967285,10652,6387,11488,12,347,110,13305,4294963411,9351,444,264,319,4294966727,4294966727,4294966727
777676839,6466409,6475620,14965,4753,4207,1,4294966661,9,10615,6352,11450,4294967293,386,89,13288,4294963391,9352,448,273,349,4294966720,4294966720,4294966720
777682847,6463876,6466278,14883,4798,4263,4294967278,4294966593,27,10637,6395,11570,4294967289,413,102,13324,4294963375,9372,428,269,345,4294966716,4294966716,4294966716
777688853,6461991,6465411,14896,4841,4284,7,4294966486,59,10684,6472,11628,4294967288,434,94,13310,4294963417,9309,393,253,340,4294966712,4294966712,4294966712
777694863,6462145,6467029,14933,4890,4168,63,4294966436,99,10759,6443,11587,4294967272,447,111,13345,4294963448,9176,350,251,346,4294966707,4294966707,4294966707
777700854,6463437,6468989,14943,4897,4183,90,4294966385,159,10745,6467,11443,17,419,101,13413,4294963422,9209,272,243,355,4294966712,4294966712,4294966712
777706849,6464138,6470238,14990,4873,3983,49,4294966277,226,10763,6547,11359,18,390,137,13375,4294963375,9082,253,230,353,4294966714,4294966714,4294966714
777712844,6464889,6472578,15076,4847,3743,4294967282,4294966305,215,10732,6455,11429,4294967274,314,118,13434,4294963411,9102,243,237,342,4294966722,4294966722,4294966722
777718838,6465857,6473274,15171,4775,3734,4294967225,4294966408,214,10688,6388,11441,4294967207,263,99,13419,4294963417,9220,262,205,316,4294966725,4294966725,4294966725
777724835,6465662,6472976,15203,4736,3709,4294967157,4294966516,194,10721,6400,11475,4294967182,271,98,13455,4294963417,9372,339,179,285,4294966726,4294966726,4294966726
777730848,6465298,6472840,15116,4703,3832,4294967143,4294966661,176,10732,6337,11424,4294967208,268,92,13455,4294963428,9388,339,187,309,4294966717,4294966717,4294966717
777736851,6465588,6473409,15036,4583,3955,4294967127,4294966781,104,10650,6369,11493,4294967277,257,76,13448,4294963386,9425,329,150,300,4294966713,4294966713,4294966713
777742867,6465822,6473441,14870,4654,4108,4294967113,4294966833,43,10620,6362,11464,56,234,79,13442,4294963436,9091,358,111,267,4294966704,4294966704,4294966704
777748867,6465135,6473301,14796,4770,4318,4294967061,4294966811,43,10599,6339,11552,158,194,78,13361,4294963431,9038,418,98,282,4294966705,4294966705,4294966705
777754843,6465282,6473062,14825,4781,4335,4294967075,4294966701,113,10612,6364,11699,328,153,90,13370,4294963390,9307,499,121,267,4294966720,4294966720,4294966720
777760844,6465774,6473068,14862,4801,4080,4294967094,4294966508,172,10703,6252,11752,240,175,59,13216,4294963435,9516,545,60,266,4294966719,4294966719,4294966719
777766855,6465757,6473766,15023,4788,3840,4294967197,4294966336,191,10626,6291,11664,180,160,71,13221,4294963346,9374,658,4294967293,231,4294966716,4294966716,4294966716
777772838,6465851,6474201,15095,4768,3638,62,4294966262,237,10567,6376,11522,113,97,82,13294,4294963372,9277,723,4294967246,203,4294966722,4294966722,4294966722
777778840,6466349,6474009,15141,4688,3566,147,4294966386,224,10658,6449,11382,180,66,99,13320,4294963432,9259,700,4294967223,201,4294966722,4294966722,4294966722
777784859,6466124,6474485,15170,4680,3551,93,4294966674,189,10684,6466,11340,162,77,89,13247,4294963548,9326,596,4294967236,245,4294966709,4294966709,4294966709
777790842,6465444,6473944,15101,4707,3502,4294967238,4294966985,135,10692,6416,11401,192,80,100,13373,4294963544,9206,486,4294967289,277,4294966719,4294966719,4294966719
777796861,6466484,6474563,15128,4730,3684,4294967138,4294967168,142,10731,6419,11418,285,80,32,13459,4294963487,9277,359,4294967292,299,4294966707,4294966707,4294966707
777802848,6466733,6475060,15038,4795,3895,4294967085,4294967228,137,10709,6403,11412,320,93,4294967273,13546,4294963417,9313,330,4294967277,315,4294966716,4294966716,4294966716
777808865,6466144,6474565,14884,4814,3993,4294967116,4294967164,159,10733,6453,11433,331,115,4294967274,13558,4294963360,9288,335,4294967231,311,4294966705,4294966705,4294966705
777814857,6466451,6474740,14835,4850,4063,4294967182,4294967025,182,10685,6475,11430,381,92,4294967259,13570,4294963370,9244,375,4294967219,277,4294966711,4294966711,4294966711
777820866,6466727,6475701,14882,4845,4105,4294967266,4294966803,201,10728,6424,11422,371,86,4294967237,13585,4294963471,9262,445,4294967199,270,4294966705,4294966705,4294966705
777826856,6466442,6475517,14908,4886,4038,73,4294966618,233,10712,6372,11497,347,117,4294967242,13505,4294963464,9141,526,4294967260,296,4294966711,4294966711,4294966711
777832833,6466677,6476349,14977,4815,4048,114,4294966441,254,10772,6418,11472,330,154,4294967242,13547,4294963417,9263,574,9,308,4294966727,4294966727,4294966727
777838835,6467347,6476388,15096,4766,3863,121,4294966356,234,10811,6473,11452,299,230,4294967258,13506,4294963466,9230,539,116,298,4294966723,4294966723,4294966723
777844833,6467448,6476653,15071,4767,3755,90,4294966367,191,10860,6438,11459,272,251,4294967271,13468,4294963405,9242,540,161,291,4294966727,4294966727,4294966727
777850846,6467118,6476697,15138,4691,3662,87,4294966469,150,10809,6433,11417,240,316,4294967294,13510,4294963434,9134,472,261,304,4294966720,4294966720,4294966720
777856849,6467330,6477218,15095,4700,3649,49,4294966611,141,10773,6425,11533,232,343,23,13450,4294963428,9017,439,319,288,4294966717,4294966717,4294966717
777862850,6467657,6477492,15117,4617,3688,4294967285,4294966726,87,10770,6415,11418,213,378,56,13421,4294963471,9171,368,335,271,4294966716,4294966716,4294966716
777868836,6467286,6477048,15140,4651,3776,4294967289,4294966823,93,10748,6447,11327,246,379,76,13437,4294963458,9204,411,338,235,4294966721,4294966721,4294966721
777874829,6467115,6477084,15099,4678,3880,4294967285,4294966812,70,10746,6406,11359,250,417,75,13384,4294963470,9203,433,286,239,4294966730,4294966730,4294966730
777880838,6467577,6477271,15065,4688,3948,4294967236,4294966787,81,10687,6356,11340,255,401,40,13394,4294963441,9175,436,241,239,4294966725,4294966725,4294966725
777886844,6467368,6476843,15037,4694,3887,4294967237,4294966748,97,10626,6361,11357,261,417,29,13393,4294963404,9180,440,260,219,4294966721,4294966721,4294966721
777892837,6467233,6476224,15076,4721,3789,4294967233,4294966720,81,10614,6365,11384,289,417,29,13367,4294963430,9146,422,283,222,4294966723,4294966723,4294966723
777898838,6467278,6476402,15099,4702,3769,4294967193,4294966749,77,10548,6338,11443,272,400,22,13314,4294963438,9114,417,250,233,4294966723,4294966723,4294966723
777904850,6466739,6475487,15132,4667,3670,4294967178,4294966801,69,10620,6343,11367,258,413,0,13301,4294963404,9234,366,254,238,4294966716,4294966716,4294966716
777910842,6466402,6474618,15122,4697,3688,4294967210,4294966842,69,10626,6409,11419,255,411,12,13355,4294963452,9231,369,226,217,4294966723,4294966723,4294966723
777916866,6466324,6474415,15113,4655,3679,4294967228,4294966946,46,10685,6361,11506,235,427,20,13393,4294963425,9329,320,242,222,4294966711,4294966711,4294966711
777922841,6466312,6474357,15031,4631,3729,4294967226,4294967004,51,10707,6396,11537,267,370,9,13360,4294963431,9273,297,204,222,4294966719,4294966719,4294966719
777928846,6465889,6473879,15068,4694,3719,4294967284,4294967056,19,10721,6414,11513,289,348,26,13442,4294963421,9237,242,207,231,4294966720,4294966720,4294966720
777934839,6466510,6474546,15024,4730,3861,4294967253,4294967031,4,10677,6368,11629,304,339,28,13400,4294963387,9325,255,155,248,4294966722,4294966722,4294966722
777940833,6466680,6473984,14995,4715,3920,4294967231,4294966968,23,10681,6431,11644,305,312,36,13425,4294963367,9387,218,106,281,4294966724,4294966724,4294966724
777946847,6466340,6473606,14973,4701,3864,4294967221,4294966873,28,10720,6463,11584,312,288,81,13460,4294963342,9366,248,54,273,4294966721,4294966721,4294966721
777952863,6466183,6473396,14987,4701,3874,4294967216,4294966777,66,10727,6408,11525,241,294,92,13408,4294963263,9370,315,31,274,4294966706,4294966706,4294966706
777958849,6466400,6473183,15052,4690,3822,4294967178,4294966739,64,10758,6449,11568,178,305,103,13435,4294963340,9213,343,28,275,4294966718,4294966718,4294966718
777964847,6466245,6473325,15058,4703,3802,4294967293,4294966661,108,10760,6493,11531,111,349,123,13492,4294963367,9261,349,64,290,4294966715,4294966715,4294966715
777970837,6465879,6472771,15127,4684,3804,37,4294966664,111,10837,6465,11491,73,376,153,13568,4294963351,9342,362,74,301,4294966725,4294966725,4294966725
777976853,6466320,6473105,15096,4714,3899,33,4294966642,116,10863,6448,11594,12,393,126,13542,4294963377,9014,354,97,318,4294966713,4294966713,4294966713
777982852,6466024,6472343,15155,4747,3957,41,4294966583,141,10818,6409,11635,32,411,104,13539,4294963386,9062,345,151,329,4294966711,4294966711,4294966711
777988845,6465066,6471965,15174,4688,3925,31,4294966491,155,10849,6300,11793,50,422,83,13517,4294963456,9158,324,197,342,4294966718,4294966718,4294966718
777994848,6465065,6472467,15182,4608,3838,41,4294966407,190,10828,6387,11802,51,420,79,13447,4294963409,9352,291,241,309,4294966715,4294966715,4294966715
778000840,6465617,6472384,15236,4601,3827,38,4294966384,185,10748,6404,11788,41,410,92,13414,4294963404,9328,316,276,298,4294966723,4294966723,4294966723
778006846,6465794,6472601,15230,4563,3681,75,4294966393,167,10717,6431,11657,39,387,116,13358,4294963353,9295,369,219,278,4294966719,4294966719,4294966719
778012846,6465678,6473056,15213,4580,3479,71,4294966563,141,10680,6395,11551,56,381,150,13343,4294963418,9310,361,204,253,4294966717,4294966717,4294966717
778018855,6465771,6472809,15180,4556,3436,64,4294966754,138,10645,6334,11421,37,382,189,13252,4294963402,9287,340,232,232,4294966711,4294966711,4294966711
778024842,6465754,6473098,15021,4533,3634,4294967274,4294966843,83,10661,6280,11438,25,374,180,13267,4294963404,9137,311,200,218,4294966723,4294966723,4294966723
778030844,6465555,6473561,15038,4601,3843,4294967211,4294966877,89,10616,6215,11677,80,321,160,13300,4294963352,9208,229,211,215,4294966718,4294966718,4294966718
778036845,6465707,6473530,14965,4595,3975,4294967172,4294966804,86,10637,6170,11656,144,322,113,13300,4294963406,9221,139,203,214,4294966716,4294966716,4294966716
778042841,6466064,6473268,14886,4679,3968,4294967216,4294966681,93,10579,6229,11568,264,319,119,13398,4294963399,9228,87,200,216,4294966723,4294966723,4294966723
778048835,6465814,6473293,14930,4706,3965,13,4294966527,159,10621,6253,11559,358,312,102,13416,4294963448,9243,72,161,246,4294966726,4294966726,4294966726
778054843,6466239,6473811,15049,4753,3854,85,4294966463,219,10575,6344,11454,435,314,113,13436,4294963334,9290,82,130,262,4294966723,4294966723,4294966723
778060836,6466265,6473402,15146,4734,3683,170,4294966405,260,10633,6287,11530,370,291,120,13456,4294963341,9272,137,95,293,4294966726,4294966726,4294966726
778066856,6465959,6472902,15191,4815,3685,217,4294966418,295,10685,6367,11547,324,303,104,13508,4294963399,9188,205,73,307,4294966714,4294966714,4294966714
778072850,6465346,6472648,15249,4761,3711,224,4294966432,282,10609,6399,11445,272,365,97,13489,4294963367,9019,279,102,338,4294966719,4294966719,4294966719
778078853,6465628,6472779,15205,4717,3630,171,4294966494,263,10685,6456,11376,186,414,86,13505,4294963345,9060,294,135,353,4294966715,4294966715,4294966715
778084856,6465691,6472782,15190,4672,3627,104,4294966559,227,10700,6446,11398,91,409,68,13492,4294963317,9173,282,186,355,4294966711,4294966711,4294966711
778090852,6465322,6472786,15190,4627,3630,70,4294966641,197,10755,6386,11393,24,416,49,13490,4294963340,9063,209,273,356,4294966711,4294966711,4294966711
778096839,6465388,6472871,15158,4599,3626,62,4294966680,184,10741,6377,11454,73,401,36,13454,4294963354,9107,208,321,356,4294966725,4294966725,4294966725
778102850,6465852,6473399,15152,4590,3555,87,4294966732,175,10731,6419,11344,145,394,4294967293,13497,4294963350,9184,153,333,330,4294966719,4294966719,4294966719
778108846,6465248,6473036,15152,4577,3672,119,4294966754,158,10736,6351,11432,158,440,9,13424,4294963368,9136,142,305,320,4294966718,4294966718,4294966718
778114848,6465583,6473415,15110,4614,3557,128,4294966830,153,10718,6342,11489,174,452,4294967295,13402,4294963310,9124,158,290,304,4294966720,4294966720,4294966720
778120848,6466029,6473640,15090,4619,3575,103,4294966918,198,10681,6305,11507,182,424,4294967268,13365,4294963358,9204,198,276,258,4294966716,4294966716,4294966716
778126850,6465617,6473652,15205,4615,3646,138,4294966883,182,10667,6347,11482,194,465,4294967255,13364,4294963413,9131,218,266,249,4294966716,4294966716,4294966716
778132852,6465424,6472917,15213,4569,3650,122,4294966892,205,10690,6367,11368,183,436,4294967263,13322,4294963369,9185,199,227,233,4294966716,4294966716,4294966716
778138848,6465476,6472612,15108,4573,3660,101,4294966898,217,10709,6302,11487,111,406,4294967265,13378,4294963362,9100,172,209,255,4294966717,4294966717,4294966717
778144839,6465407,6472654,15246,4567,3661,88,4294966918,192,10710,6271,11477,84,368,4294967246,13430,4294963287,9138,183,243,249,4294966725,4294966725,4294966725
778150860,6465447,6473248,15188,4568,3653,59,4294966913,202,10751,6306,11486,85,349,4294967273,13394,4294963290,9081,165,228,242,4294966707,4294966707,4294966707
778156859,6465507,6472919,15184,4492,3692,48,4294966823,189,10709,6310,11587,77,347,4294967259,13483,4294963270,9176,200,214,260,4294966710,4294966710,4294966710
778162856,6465963,6473259,15186,4546,3670,14,4294966834,136,10712,6294,11455,105,380,4294967285,13412,4294963288,9270,235,247,241,4294966714,4294966714,4294966714
778168851,6465560,6472939,15232,4513,3688,4294967291,4294966838,135,10815,6268,11448,79,441,4294967268,13454,4294963206,9252,261,259,251,4294966718,4294966718,4294966718
778174843,6465653,6472594,15252,4481,3625,14,4294966820,135,10758,6305,11482,98,416,4294967256,13429,4294963248,9212,296,257,258,4294966723,4294966723,4294966723
778180844,6465928,6473083,15227,4570,3488,72,4294966843,124,10744,6285,11439,194,457,4294967269,13455,4294963231,9117,324,258,234,4294966719,4294966719,4294966719
778186849,6465947,6473125,15229,4573,3530,122,4294966889,112,10752,6286,11486,241,483,4294967258,13454,4294963279,9172,356,302,253,4294966715,4294966715,4294966715
778192847,6466042,6472712,15194,4548,3539,147,4294966896,120,10760,6325,11417,292,515,4294967266,13428,4294963264,9116,395,328,276,4294966718,4294966718,4294966718
778198857,6466394,6472893,15163,4541,3591,147,4294966926,99,10796,6322,11488,288,562,4294967293,13403,4294963293,9156,358,360,272,4294966715,4294966715,4294966715
778204843,6465791,6472581,15112,4574,3614,97,4294966913,83,10721,6308,11490,269,601,4294967295,13320,4294963334,9095,347,439,268,4294966723,4294966723,4294966723
778210851,6465644,6472179,15112,4539,3639,38,4294966897,96,10754,6326,11456,255,655,4294967295,13327,4294963359,9269,357,464,301,4294966716,4294966716,4294966716
778216844,6465737,6472903,15102,4542,3544,28,4294966848,85,10685,6296,11612,242,641,4294967291,13319,4294963343,9234,334,466,257,4294966722,4294966722,4294966722
778222835,6466299,6473100,15137,4526,3640,53,4294966782,78,10671,6282,11592,196,643,14,13363,4294963288,9195,326,455,274,4294966723,4294966723,4294966723
778228856,6466090,6472807,15163,4501,3567,91,4294966734,76,10653,6297,11514,159,656,4,13333,4294963327,9108,306,475,253,4294966709,4294966709,4294966709
778234846,6466177,6473005,15177,4538,3450,118,4294966704,60,10663,6294,11512,142,638,16,13323,4294963244,9038,322,449,233,4294966718,4294966718,4294966718
778240860,6466877,6474720,15084,4540,3337,110,4294966725,41,10702,6292,11477,113,624,39,13362,4294963227,9202,374,457,217,4294966715,4294966715,4294966715
778246851,6467175,6476768,15160,4525,3387,165,4294966777,24,10647,6315,11403,79,634,36,13327,4294963313,9300,386,426,197,4294966713,4294966713,4294966713
778252843,6467763,6478240,15149,4502,3367,156,4294966808,5,10718,6312,11394,44,645,54,13369,4294963335,9244,406,430,223,4294966718,4294966718,4294966718
778258850,6469385,6482416,15112,4542,3419,123,4294966843,4294967295,10643,6352,11574,34,638,60,13428,4294963286,9255,431,378,199,4294966717,4294966717,4294966717
778264849,6468872,6483800,15106,4508,3400,105,4294966800,7,10601,6328,11449,78,643,76,13397,4294963330,9230,411,375,226,4294966717,4294966717,4294966717
778270852,6465829,6474546,15039,4497,3510,135,4294966767,5,10620,6369,11461,138,667,40,13431,4294963347,9215,419,364,215,4294966713,4294966713,4294966713
778276851,6464135,6466190,15000,4470,3552,119,4294966662,3,10531,6282,11425,184,690,60,13368,4294963402,9280,474,374,219,4294966716,4294966716,4294966716
778282843,6463380,6466564,15011,4537,3535,104,4294966602,23,10536,6276,11492,208,725,68,13311,4294963397,9188,511,368,239,4294966723,4294966723,4294966723
778288857,6463061,6467923,15070,4596,3553,92,4294966503,36,10493,6317,11648,241,734,61,13346,4294963355,9314,570,324,249,4294966713,4294966713,4294966713
778294852,6463501,6468664,15116,4615,3627,25,4294966437,87,10531,6316,11688,257,732,87,13282,4294963388,9357,569,261,206,4294966713,4294966713,4294966713
778300850,6464283,6469894,15172,4526,3425,4294967225,4294966379,96,10571,6360,11585,210,699,69,13322,4294963396,9349,602,226,206,4294966715,4294966715,4294966715
778306855,6465040,6472072,15227,4522,3222,4294967198,4294966454,103,10552,6331,11559,170,620,64,13345,4294963433,9170,578,202,194,4294966716,4294966716,4294966716
778312839,6465487,6472902,15338,4516,3115,4294967120,4294966583,117,10569,6362,11584,157,576,51,13334,4294963329,9216,557,224,176,4294966725,4294966725,4294966725
778318847,6466166,6473593,15326,4501,3119,4294967135,4294966730,69,10569,6309,11639,204,578,43,13339,4294963355,9289,543,201,171,4294966719,4294966719,4294966719
778324839,6466295,6474016,15340,4459,3227,4294967204,4294966875,28,10561,6286,11591,238,632,45,13364,4294963327,9469,541,209,165,4294966725,4294966725,4294966725
778330828,6465836,6473147,15228,4510,3493,4294967211,4294966959,4294967271,10547,6256,11476,222,610,44,13367,4294963311,9260,538,162,153,4294966728,4294966728,4294966728
778336857,6466480,6474253,15146,4616,3687,4294967128,4294966979,4294967261,10476,6417,11573,230,581,22,13358,4294963360,9178,630,152,126,4294966712,4294966712,4294966712
778342856,6466752,6474855,15002,4695,3821,4294967055,4294966831,13,10471,6351,11715,193,576,49,13314,4294963404,9169,698,100,125,4294966709,4294966709,4294966709
778348856,6466253,6474140,15130,4659,3701,4294966982,4294966591,84,10475,6278,11879,222,587,65,13279,4294963385,9390,791,112,131,4294966717,4294966717,4294966717
778354852,6466594,6474207,15211,4647,3629,4294966991,4294966358,129,10532,6187,11878,205,581,68,13214,4294963425,9245,864,149,123,4294966712,4294966712,4294966712
778360854,6466737,6474310,15328,4650,3350,4294967136,4294966254,154,10500,6238,11753,63,546,58,13259,4294963340,9252,937,140,95,4294966715,4294966715,4294966715
778366854,6466840,6474332,15417,4636,3247,4294967294,4294966324,176,10542,6257,11576,4294967265,514,71,13274,4294963238,9346,938,90,58,4294966710,4294966710,4294966710
778372868,6466411,6474290,15353,4559,3105,34,4294966556,177,10623,6217,11436,4294967234,538,86,13307,4294963221,9282,905,4294967291,51,4294966703,4294966703,4294966703
778378844,6467005,6475001,15329,4481,2994,4294967262,4294966855,124,10637,6186,11542,4294967266,598,36,13398,4294963296,9272,836,4294967231,75,4294966719,4294966719,4294966719
778384869,6466850,6475077,15339,4480,3050,4294967174,4294967073,79,10710,6130,11544,61,639,4294967247,13420,4294963337,9290,771,4294967174,82,4294966703,4294966703,4294966703
778390829,6466422,6474556,15236,4572,3245,4294967141,4294967158,62,10679,6140,11433,133,642,4294967206,13485,4294963239,9255,696,4294967138,84,4294966729,4294966729,4294966729
778396842,6466740,6474845,15162,4548,3547,4294967147,4294967152,81,10694,6241,11691,180,656,4294967172,13493,4294963132,9255,714,4294967104,79,4294966723,4294966723,4294966723
778402853,6466603,6475121,15122,4628,3700,4294967087,4294967076,74,10648,6378,11559,222,652,4294967180,13484,4294963200,9339,830,4294967093,81,4294966711,4294966711,4294966711
778408836,6466317,6475279,15153,4565,3682,4294967177,4294966874,91,10675,6372,11655,238,664,4294967199,13542,4294963266,9308,908,4294967095,85,4294966727,4294966727,4294966727
778414873,6466740,6475357,15195,4588,3580,39,4294966687,110,10669,6430,11660,267,602,4294967195,13554,4294963408,9097,997,4294967124,97,4294966702,4294966702,4294966702
778420852,6467326,6476393,15269,4573,3574,176,4294966582,127,10678,6417,11903,314,552,4294967221,13647,4294963488,9108,999,4294967207,150,4294966714,4294966714,4294966714
778426854,6467092,6476149,15345,4532,3380,241,4294966586,70,10710,6405,11865,360,556,4294967219,13722,4294963482,8991,977,4294967294,187,4294966714,4294966714,4294966714
778432841,6467410,6476713,15343,4446,3332,231,4294966677,43,10679,6417,11890,416,561,4294967218,13695,4294963456,9103,928,83,242,4294966721,4294966721,4294966721
778438841,6467875,6476991,15369,4431,3155,195,4294966788,12,10685,6429,11827,394,615,4294967228,13641,4294963429,9182,856,151,263,4294966723,4294966723,4294966723
778444861,6467612,6476621,15298,4403,3280,145,4294966963,4294967243,10726,6384,11653,269,644,4294967259,13566,4294963375,9159,736,217,242,4294966710,4294966710,4294966710
778450850,6467165,6477124,15232,4385,3470,123,4294967075,4294967212,10752,6318,11531,119,672,4294967286,13536,4294963417,9070,625,254,190,4294966719,4294966719,4294966719
778456843,6467678,6477703,15203,4450,3352,69,4294967169,4294967209,10641,6387,11656,20,650,4294967277,13445,4294963465,9111,582,316,152,4294966718,4294966718,4294966718
778462839,6468205,6477310,15242,4487,3371,78,4294967158,4294967226,10593,6413,11620,4294967270,651,4294967282,13408,4294963505,9224,613,331,150,4294966725,4294966725,4294966725
778468844,6467824,6477594,15256,4441,3307,111,4294967097,4294967260,10557,6391,11621,4294967275,684,4294967269,13297,4294963537,9088,688,378,142,4294966719,4294966719,4294966719
778474844,6467908,6477799,15324,4447,3252,150,4294967046,4294967258,10521,6391,11721,12,658,4294967278,13339,4294963569,9144,751,391,154,4294966722,4294966722,4294966722
778480847,6468197,6477153,15301,4493,3263,204,4294967032,4294967245,10511,6387,11783,77,645,4294967277,13334,4294963579,9113,668,370,201,4294966715,4294966715,4294966715
778486869,6467180,6476374,15215,4478,3261,218,4294967041,4294967217,10528,6358,11619,184,624,4294967278,13369,4294963545,9057,616,376,240,4294966706,4294966706,4294966706
778492848,6467163,6476445,15223,4441,3227,200,4294967112,4294967188,10568,6339,11578,200,624,4294967290,13307,4294963451,9023,558,429,246,4294966715,4294966715,4294966715
778498879,6466862,6475548,15172,4461,3252,176,4294967145,4294967142,10500,6351,11623,121,603,4294967292,13349,4294963496,9076,525,458,242,4294966697,4294966697,4294966697
778504840,6466526,6475175,15084,4468,3307,128,4294967176,4294967121,10513,6336,11656,67,596,26,13349,4294963474,9216,565,484,266,4294966721,4294966721,4294966721
778510848,6466062,6474427,15123,4492,3338,102,4294967226,4294967083,10466,6339,11766,42,597,16,13323,4294963528,9240,572,487,269,4294966715,4294966715,4294966715
778516848,6466271,6474242,15059,4527,3454,78,4294967123,4294967118,10416,6344,11951,58,576,32,13302,4294963608,9324,584,464,294,4294966718,4294966718,4294966718
778522841,6466741,6474439,15104,4578,3413,81,4294967078,4294967109,10403,6430,11864,64,560,47,13338,4294963565,9245,518,421,328,4294966720,4294966720,4294966720
778528853,6466212,6474113,15114,4643,3431,80,4294967013,4294967161,10355,6365,11815,102,595,82,13339,4294963581,9206,468,375,335,4294966711,4294966711,4294966711
778534835,6465887,6473693,15138,4704,3315,67,4294966907,4294967184,10387,6420,11712,114,623,81,13307,4294963548,9251,460,401,338,4294966727,4294966727,4294966727
778540849,6466603,6474395,15224,4732,3256,124,4294966910,4294967243,10422,6425,11738,36,620,142,13374,4294963540,9240,460,371,380,4294966714,4294966714,4294966714
778546846,6466650,6474240,15229,4688,3233,173,4294966910,4294967271,10511,6465,11720,4294967232,637,152,13428,4294963616,9151,497,393,415,4294966716,4294966716,4294966716
778552842,6465617,6472891,15191,4613,3324,166,4294966948,4294967273,10456,6446,11766,4294967168,615,143,13462,4294963578,9183,521,409,423,4294966720,4294966720,4294966720
778558853,6466073,6473083,15276,4661,3526,137,4294966955,4294967292,10476,6411,11710,4294967182,632,117,13504,4294963569,9266,439,411,454,4294966715,4294966715,4294966715
778564849,6465724,6473538,15286,4662,3553,53,4294966947,17,10455,6346,11746,4294967146,594,94,13438,4294963415,9253,399,432,440,4294966714,4294966714,4294966714
778570867,6465459,6472376,15287,4577,3449,4294967225,4294966831,45,10471,6346,11830,4294967073,591,71,13489,4294963451,9103,421,478,435,4294966702,4294966702,4294966702
778576850,6465695,6472544,15418,4529,3279,18,4294966754,59,10465,6240,12120,4294967050,627,104,13410,4294963482,9275,480,486,437,4294966714,4294966714,4294966714
778582834,6465609,6473141,15394,4414,3015,102,4294966723,40,10460,6266,12263,4294967131,611,47,13325,4294963586,9459,523,527,385,4294966727,4294966727,4294966727
778588847,6465097,6472544,15450,4340,2936,126,4294966837,1,10389,6239,12032,4294967192,549,45,13311,4294963486,9466,620,540,352,4294966720,4294966720,4294966720
778594849,6465294,6473105,15333,4347,2959,90,4294967002,4294967236,10385,6253,11844,4294967168,559,101,13337,4294963417,9352,627,519,308,4294966718,4294966718,4294966718
778600841,6465569,6473339,15250,4286,3079,4294967266,4294967172,4294967209,10388,6322,11598,4294967236,623,106,13269,4294963483,9408,593,481,290,4294966721,4294966721,4294966721
778606862,6465852,6473653,15163,4320,3335,4294967179,4294967269,4294967178,10424,6201,11621,5,630,89,13217,4294963481,9580,530,432,253,4294966706,4294966706,4294966706
778612840,6465271,6472868,15135,4375,3415,4294967149,4294967199,4294967176,10350,6089,11660,92,653,54,13346,4294963387,9498,422,386,240,4294966720,4294966720,4294966720
778618837,6465630,6472974,15080,4519,3487,4294967199,4294967094,4294967206,10402,6069,11666,117,708,17,13295,4294963335,9479,303,318,221,4294966725,4294966725,4294966725
778624854,6465564,6473373,15134,4620,3456,51,4294966944,4294967268,10392,6107,11891,145,734,4294967292,13362,4294963352,9385,260,265,203,4294966713,4294966713,4294966713
778630850,6465430,6473566,15178,4653,3427,216,4294966872,21,10436,6152,11816,170,715,4294967268,13362,4294963356,9445,330,212,196,4294966715,4294966715,4294966715
778636862,6465358,6472890,15255,4723,3324,308,4294966865,78,10473,6198,11696,233,725,4294967271,13441,4294963374,9311,411,173,197,4294966708,4294966708,4294966708
778642867,6465779,6473245,15322,4722,3371,319,4294966910,71,10450,6269,11829,280,676,18,13525,4294963378,9173,493,138,209,4294966706,4294966706,4294966706
778648854,6465320,6473264,15319,4685,3337,258,4294966944,79,10464,6248,11893,290,684,12,13509,4294963424,9111,547,132,240,4294966713,4294966713,4294966713
778654838,6465942,6474414,15241,4691,3358,165,4294966974,78,10445,6317,11845,333,657,9,13533,4294963418,9370,514,167,305,4294966723,4294966723,4294966723
778660852,6465928,6473283,15222,4567,3325,104,4294966943,90,10416,6209,11921,303,667,4294967283,13545,4294963343,9443,558,279,342,4294966715,4294966715,4294966715
778666847,6467440,6473300,15312,4567,3189,136,4294966939,57,10434,6222,11885,300,722,4294967289,13550,4294963371,9273,549,388,374,4294966715,4294966715,4294966715
778672834,6465276,6472983,15275,4550,3162,157,4294966970,85,10441,6266,11877,301,691,4294967270,13522,4294963380,9223,506,462,356,4294966727,4294966727,4294966727
778678850,6465726,6474003,15311,4575,3248,146,4294967037,80,10430,6329,11850,331,724,4294967273,13464,4294963459,9266,484,458,370,4294966716,4294966716,4294966716
778684843,6465846,6474035,15250,4568,3210,96,4294967070,63,10400,6355,11824,256,756,4294967279,13424,4294963485,9168,473,488,355,4294966721,4294966721,4294966721
778690860,6465783,6473858,15315,4600,3228,26,4294967084,77,10393,6349,11925,209,738,4294967283,13397,4294963471,9324,433,518,371,4294966709,4294966709,4294966709
778696853,6466606,6474414,15246,4626,3225,36,4294967046,77,10409,6358,11958,210,752,4294967265,13405,4294963457,9350,416,450,320,4294966715,4294966715,4294966715
778702840,6466600,6474970,15219,4636,3179,119,4294967021,93,10354,6313,12010,238,703,4294967271,13397,4294963501,9424,421,432,303,4294966724,4294966724,4294966724
778708855,6466191,6474572,15289,4655,3132,194,4294967015,95,10374,6319,11970,226,630,4294967251,13365,4294963566,9466,439,412,288,4294966714,4294966714,4294966714
778714866,6466505,6474696,15280,4587,3113,222,4294967048,97,10369,6309,12009,194,620,4294967256,13302,4294963572,9189,506,434,256,4294966708,4294966708,4294966708
778720848,6466905,6474857,15292,4600,3145,207,4294967122,63,10356,6358,11871,122,619,4294967261,13250,4294963649,9130,505,426,233,4294966716,4294966716,4294966716
778726844,6466074,6474946,15231,4619,3222,159,4294967168,56,10346,6407,11777,29,637,4294967258,13285,4294963645,9324,540,408,223,4294966720,4294966720,4294966720
778732836,6466221,6474651,15248,4547,3359,105,4294967139,64,10368,6363,11786,4294967239,649,4294967271,13301,4294963642,9301,550,406,218,4294966725,4294966725,4294966725
778738851,6466708,6475231,15268,4588,3290,92,4294967096,59,10295,6269,11893,4294967239,629,4294967257,13313,4294963657,9243,523,423,200,4294966717,4294966717,4294966717
778744864,6466741,6474853,15243,4581,3258,88,4294967082,34,10302,6358,11930,4294967265,659,4294967249,13367,4294963632,9366,529,434,219,4294966712,4294966712,4294966712
778750837,6465985,6473494,15275,4598,3333,117,4294967066,35,10348,6344,11804,4294967282,651,4294967252,13397,4294963576,9436,463,366,200,4294966722,4294966722,4294966722
778756849,6466097,6474617,15285,4582,3323,101,4294967067,14,10286,6317,11807,36,622,4294967231,13393,4294963514,9311,378,362,246,4294966715,4294966715,4294966715
778762859,6467053,6475651,15254,4578,3193,108,4294967068,4294967294,10350,6262,11845,20,615,4294967224,13363,4294963494,9191,356,350,234,4294966709,4294966709,4294966709
778768832,6466998,6475235,15373,4570,3053,168,4294967085,13,10407,6246,11901,61,588,4294967221,13338,4294963331,9364,334,323,243,4294966729,4294966729,4294966729
778774835,6466983,6475500,15319,4496,2979,306,4294967213,4294967276,10400,6150,11916,87,617,4294967223,13279,4294963343,9442,359,389,256,4294966724,4294966724,4294966724
778780844,6467065,6474355,15241,4417,3142,342,67,4294967218,10370,6205,11788,61,593,4294967217,13303,4294963342,9339,407,498,256,4294966718,4294966718,4294966718
778786843,6466519,6474387,15148,4359,3294,200,128,4294967178,10382,6155,11767,97,634,4294967218,13202,4294963332,9396,430,570,287,4294966718,4294966718,4294966718
778792837,6466112,6474260,15108,4334,3481,47,39,4294967187,10353,6217,11811,134,655,4294967261,13182,4294963382,9447,426,613,318,4294966722,4294966722,4294966722
778798861,6466920,6473626,15160,4355,3358,4294967280,4294967235,4294967204,10300,6290,11915,102,736,4294967288,13153,4294963475,9453,472,705,346,4294966707,4294966707,4294966707
778804858,6466101,6473628,15177,4372,3351,22,4294967124,4294967215,10291,6307,11881,25,755,73,13153,4294963553,9487,518,746,412,4294966708,4294966708,4294966708
778810865,6465654,6472755,15092,4476,3250,61,4294967045,4294967208,10291,6332,11944,4294967265,803,72,13236,4294963652,9391,524,734,420,4294966704,4294966704,4294966704
778816852,6465990,6473170,15127,4488,3174,122,4294967035,4294967280,10136,6354,12036,4294967242,711,96,13255,4294963681,9357,452,717,438,4294966713,4294966713,4294966713
778822832,6466340,6473349,15122,4527,3128,149,4294967082,43,10230,6280,12167,4294967249,655,103,13329,4294963598,9484,411,616,497,4294966728,4294966728,4294966728
778828847,6465810,6473197,15030,4537,3113,156,4294967224,61,10182,6214,12121,19,592,87,13410,4294963610,9518,313,476,479,4294966715,4294966715,4294966715
778834848,6465517,6474239,14996,4579,3301,114,28,115,10256,6211,12053,78,578,52,13320,4294963556,9436,210,347,511,4294966715,4294966715,4294966715
778840854,6466019,6475991,15044,4565,3322,53,43,162,10271,6227,11879,68,597,30,13302,4294963449,9458,142,167,481,4294966712,4294966712,4294966712
778846836,6466245,6477426,15120,4547,3201,73,4294967288,227,10239,6246,11816,51,568,30,13229,4294963359,9467,197,100,446,4294966724,4294966724,4294966724
778852848,6467869,6479784,15105,4501,3110,182,4294967218,238,10238,6171,11854,64,536,15,13191,4294963288,9345,373,130,373,4294966714,4294966714,4294966714
778858849,6469148,6483749,15161,4529,3304,216,4294967133,283,10204,6114,11972,97,482,9,13200,4294963363,9298,561,221,282,4294966716,4294966716,4294966716
778864865,6466623,6479647,15226,4540,3462,147,4294966998,290,10173,6178,12027,129,520,4294967285,13173,4294963465,9336,670,289,268,4294966702,4294966702,4294966702
778870853,6464840,6469464,15287,4582,3533,43,4294966821,289,10160,6212,12111,169,498,28,13260,4294963585,9276,636,361,286,4294966712,4294966712,4294966712
778876846,6463631,6466903,15349,4551,3398,4294967282,4294966641,313,10128,6356,12117,117,523,44,13248,4294963675,9288,560,476,305,4294966718,4294966718,4294966718
778882863,6463653,6468324,15475,4559,3272,24,4294966559,284,10099,6366,11987,78,547,23,13295,4294963650,9378,532,460,332,4294966706,4294966706,4294966706
778888852,6463253,6468921,15428,4609,3290,85,4294966558,249,10138,6410,12024,4294967243,568,44,13324,4294963648,9257,502,493,314,4294966715,4294966715,4294966715
778894834,6463777,6470116,15491,4559,3179,49,4294966646,230,10222,6421,11994,4294967134,538,32,13352,4294963635,9400,383,447,342,4294966723,4294966723,4294966723
778900845,6464961,6472498,15620,4527,2839,4294967262,4294966814,194,10290,6324,11959,4294967151,461,4294967269,13302,4294963629,9459,292,366,331,4294966716,4294966716,4294966716
778906845,6465759,6473646,15587,4543,2673,4294967151,4294967000,152,10314,6165,11954,4294967217,434,4294967208,13288,4294963456,9393,267,325,300,4294966717,4294966717,4294966717
778912850,6465889,6473685,15488,4446,2822,4294967094,4294967210,108,10310,6147,11970,4294967282,458,4294967162,13147,4294963454,9321,334,317,262,4294966714,4294966714,4294966714
778918850,6466426,6473822,15329,4346,3081,4294967209,114,4294967275,10278,6085,11911,59,497,4294967149,13243,4294963538,9373,419,362,254,4294966715,4294966715,4294966715
778924845,6466321,6474707,15189,4366,3362,19,172,4294967179,10210,6089,11787,137,579,4294967126,13211,4294963460,9428,552,477,216,4294966718,4294966718,4294966718
778930848,6466519,6474891,15070,4478,3634,27,77,4294967135,10152,6249,11943,138,613,4294967157,13233,4294963521,9283,630,523,212,4294966720,4294966720,4294966720
778936846,6466786,6474654,15200,4588,3643,4294967273,4294967137,4294967206,10129,6405,12034,170,636,4294967218,13145,4294963643,9254,695,563,216,4294966718,4294966718,4294966718
778942838,6467036,6474714,15329,4651,3374,4294967281,4294966888,33,10114,6410,12173,190,720,4294967273,13108,4294963661,9390,705,615,280,4294966722,4294966722,4294966722
778948840,6466808,6474830,15389,4610,3108,82,4294966749,101,10208,6334,12204,162,727,9,13132,4294963747,9445,632,611,298,4294966719,4294966719,4294966719
778954857,6466484,6475262,15453,4669,3029,212,4294966850,125,10213,6310,12245,0,617,34,13151,4294963563,9507,509,595,316,4294966711,4294966711,4294966711
778960849,6466906,6475345,15401,4533,2727,308,4294967173,116,10305,6217,12295,4294967102,444,31,13209,4294963314,9606,450,480,289,4294966716,4294966716,4294966716
778966848,6466438,6475320,15310,4495,2626,321,294,99,10331,6234,11948,4294967069,343,38,13223,4294963272,9497,380,354,219,4294966715,4294966715,4294966715
778972843,6466815,6475588,15203,4365,2609,205,697,13,10373,6123,11787,4294967153,304,9,13309,4294963349,9466,327,323,218,4294966722,4294966722,4294966722
778978851,6466716,6475336,15088,4334,2932,4,917,4294967266,10264,6074,11794,4294967210,283,9,13284,4294963400,9406,324,288,216,4294966714,4294966714,4294966714
778984840,6466635,6475576,14953,4364,3310,4294967134,906,4294967245,10268,6033,11861,4294967274,318,4294967261,13313,4294963377,9538,311,285,263,4294966721,4294966721,4294966721
778990828,6466387,6474816,14868,4413,3723,4294967040,683,4294967286,10232,6104,11927,80,346,4294967230,13371,4294963346,9498,352,270,273,4294966729,4294966729,4294966729
778996852,6466389,6475913,14870,4450,3825,4294967083,282,16,10120,6090,12116,132,307,4294967216,13330,4294963360,9449,401,334,294,4294966715,4294966715,4294966715
779002851,6467412,6476264,15027,4448,3734,4294967162,4294967173,90,10143,6150,12124,201,256,4294967209,13427,4294963350,9534,461,299,328,4294966712,4294966712,4294966712
779008859,6466700,6475656,15167,4433,3504,42,4294966827,155,10190,6255,12149,361,179,4294967245,13494,4294963438,9572,565,272,326,4294966713,4294966713,4294966713
779014838,6466512,6476653,15200,4419,3294,150,4294966698,183,10319,6286,12217,404,221,4294967226,13486,4294963520,9616,581,253,318,4294966723,4294966723,4294966723
779020846,6466784,6477768,15259,4415,3246,163,4294966782,172,10309,6303,12204,306,325,4294967217,13440,4294963524,9521,537,259,362,4294966715,4294966715,4294966715
779026851,6466341,6475553,15222,4477,3131,129,4294966916,191,10316,6296,11965,256,412,4294967246,13422,4294963476,9446,480,269,386,4294966713,4294966713,4294966713
779032866,6466744,6476158,15253,4393,3139,25,4294967069,179,10318,6261,11959,156,487,4294967240,13370,4294963406,9352,418,298,389,4294966706,4294966706,4294966706
779038852,6466292,6476906,15259,4430,3155,4294967238,4294967174,169,10270,6188,12146,81,463,4294967248,13287,4294963362,9358,433,312,353,4294966715,4294966715,4294966715
779044848,6466285,6477012,15335,4422,3171,4294967180,4294967172,173,10248,6177,12001,86,496,4294967213,13125,4294963361,9419,433,371,304,4294966715,4294966715,4294966715
779050850,6466124,6475870,15396,4411,3139,4294967197,4294967110,192,10229,6149,11771,6,520,4294967223,13118,4294963352,9328,483,433,252,4294966714,4294966714,4294966714
779056834,6466635,6476738,15447,4462,3181,4294967272,4294967083,177,10229,6095,11804,4294967223,507,4294967211,13075,4294963288,9334,544,512,196,4294966727,4294966727,4294966727
779062842,6467262,6477476,15469,4421,3106,23,4294967062,156,10282,6121,11857,4294967238,465,4294967174,13099,4294963318,9386,563,548,136,4294966723,4294966723,4294966723
779068866,6466650,6476745,15424,4370,3174,29,4294967081,69,10181,6065,12041,42,385,4294967179,13079,4294963372,9494,541,579,134,4294966707,4294966707,4294966707
779074846,6466020,6476758,15430,4389,3152,41,4294967144,26,10214,6089,11965,203,349,4294967200,13098,4294963534,9578,497,538,163,4294966718,4294966718,4294966718
779080840,6466852,6475952,15438,4385,3315,4294967262,4294967184,4294967266,10277,6084,11965,187,401,4294967188,13173,4294963593,9456,386,494,172,4294966719,4294966719,4294966719
779086849,6466492,6476043,15342,4425,3301,4294967187,4294967144,4294967220,10295,6144,12022,219,427,4294967206,13178,4294963565,9369,345,453,216,4294966719,4294966719,4294966719
779092849,6466551,6475343,15326,4351,3199,4294967204,4294967080,4294967207,10201,6185,11991,295,465,4294967241,13159,4294963533,9374,298,391,260,4294966712,4294966712,4294966712
779098847,6466799,6475912,15283,4492,3229,4294967277,4294967088,4294967187,10210,6174,12029,341,517,4294967259,13159,4294963563,9363,336,366,233,4294966715,4294966715,4294966715
779104861,6465879,6475150,15298,4535,3312,52,4294967069,4294967153,10168,6237,12070,310,546,4294967263,13162,4294963534,9454,416,364,262,4294966709,4294966709,4294966709
779110844,6466004,6474308,15319,4582,3367,43,4294967058,4294967188,10160,6286,12065,195,557,4294967278,13201,4294963517,9454,397,329,240,4294966719,4294966719,4294966719
779116847,6466529,6474658,15367,4581,3271,4294967292,4294967004,4294967204,10163,6296,11966,82,524,4294967281,13163,4294963498,9528,400,323,252,4294966718,4294966718,4294966718
779122853,6465869,6474637,15276,4471,3123,4294967288,4294967026,4294967175,10110,6237,12014,4294967285,515,4294967284,13171,4294963454,9581,422,331,241,4294966711,4294966711,4294966711
779128844,6466123,6474391,15154,4436,3009,56,4294967099,4294967140,10222,6231,11966,4294967223,510,6,13164,4294963446,9527,423,363,246,4294966722,4294966722,4294966722
779134850,6466247,6474028,15055,4366,3078,75,4294967269,4294967126,10233,6238,12000,4294967247,480,8,13193,4294963476,9503,392,439,250,4294966718,4294966718,4294966718
779140842,6466339,6473398,15064,4419,3227,4294967284,79,4294967123,10222,6289,12111,45,462,8,13229,4294963524,9593,351,499,269,4294966721,4294966721,4294966721
779146861,6465436,6473296,15050,4453,3296,4294967197,14,4294967197,10184,6328,11987,88,449,16,13270,4294963530,9539,284,520,292,4294966706,4294966706,4294966706
779152837,6465754,6473709,15134,4464,3529,4294967129,4294967142,4294967268,10187,6212,12034,126,463,32,13285,4294963647,9472,253,514,350,4294966724,4294966724,4294966724
779158842,6466042,6474040,15189,4480,3573,4294967099,4294966926,33,10160,6276,12200,180,443,23,13254,4294963632,9242,198,496,382,4294966720,4294966720,4294966720
779164840,6465949,6473057,15216,4499,3481,4294967088,4294966725,85,10101,6286,12284,181,466,39,13210,4294963676,9391,215,456,417,4294966721,4294966721,4294966721
779170832,6465538,6473495,15281,4420,3257,4294967169,4294966563,108,10179,6278,12394,95,410,72,13169,4294963638,9624,273,376,418,4294966728,4294966728,4294966728
779176863,6465791,6473031,15320,4445,3176,4294967284,4294966580,61,10127,6239,12472,19,379,47,13107,4294963575,9670,320,352,389,4294966706,4294966706,4294966706
779182846,6465584,6473726,15385,4359,3016,87,4294966751,23,10028,6292,12219,4294967264,320,52,13157,4294963528,9661,357,255,339,4294966718,4294966718,4294966718
779188855,6464867,6473015,15296,4343,2878,97,4294967036,4294967284,10078,6282,12167,4294967232,280,17,13082,4294963500,9701,347,186,298,4294966713,4294966713,4294966713
779194838,6464677,6472813,15332,4347,2869,41,4294967225,4294967228,10154,6239,12078,4294967257,245,6,13093,4294963496,9719,290,173,274,4294966722,4294966722,4294966722
779200855,6465706,6474958,15298,4272,2987,4294967262,11,4294967227,10219,6112,12031,4294967277,241,4294967274,13092,4294963521,9638,229,198,258,4294966713,4294966713,4294966713
779206849,6465346,6474319,15233,4297,3197,4294967215,28,4294967200,10114,6144,11953,101,209,4294967266,12960,4294963430,9519,191,215,252,4294966720,4294966720,4294966720
779212851,6466010,6474212,15099,4407,3426,4294967230,4294967233,4294967219,10097,6138,12099,191,195,4294967270,13076,4294963446,9494,208,299,253,4294966713,4294966713,4294966713
779218841,6465929,6474081,15110,4564,3648,4294967204,4294967107,4294967258,10115,6253,12098,284,152,10,13151,4294963472,9423,225,296,263,4294966721,4294966721,4294966721
779224855,6466210,6474104,15272,4747,3673,4294967157,4294966931,45,10142,6178,12059,254,166,50,13316,4294963452,9418,240,258,305,4294966712,4294966712,4294966712
779230848,6465578,6473974,15446,4820,3404,4294967181,4294966722,146,10113,6171,12088,201,178,80,13304,4294963406,9495,270,218,337,4294966715,4294966715,4294966715
779236841,6465620,6474340,15454,4721,3197,4294967267,4294966647,191,10166,6098,12090,146,187,62,13325,4294963425,9505,311,226,325,4294966723,4294966723,4294966723
779242851,6465934,6473823,15478,4650,3009,102,4294966726,158,10181,6133,12043,92,200,28,13277,4294963363,9459,378,210,331,4294966716,4294966716,4294966716
779248846,6465545,6473809,15453,4469,2968,112,4294966925,124,10187,6120,12103,71,269,20,13265,4294963372,9593,392,220,300,4294966719,4294966719,4294966719
779254849,6465597,6474809,15393,4418,2955,4294967278,4294967134,81,10164,6110,12057,10,326,10,13318,4294963459,9409,390,294,274,4294966719,4294966719,4294966719
779260840,6466081,6474608,15323,4429,2947,4294967172,4294967275,32,10194,6208,12061,4294967292,369,8,13242,4294963481,9495,359,349,320,4294966723,4294966723,4294966723
779266849,6465358,6473797,15271,4398,2973,4294967158,60,4294967292,10222,6199,12136,34,352,4294967273,13248,4294963493,9550,307,374,312,4294966717,4294966717,4294966717
779272850,6465589,6474018,15165,4353,3055,4294967243,140,4294967258,10217,6262,11986,124,363,4294967290,13272,4294963476,9581,251,410,309,4294966714,4294966714,4294966714
779278852,6465820,6474301,15121,4416,3237,4294967259,214,4294967252,10214,6188,11868,107,332,4294967247,13217,4294963460,9599,190,379,324,4294966714,4294966714,4294966714
779284851,6465903,6474229,15127,4471,3455,4294967233,182,4294967251,10194,6141,12105,144,356,4294967213,13257,4294963415,9600,194,332,284,4294966715,4294966715,4294966715
779290850,6465627,6474045,15173,4467,3396,4294967210,55,4294967295,10186,6139,12085,243,348,4294967199,13095,4294963428,9611,246,302,272,4294966714,4294966714,4294966714
779296842,6466128,6474649,15228,4414,3444,4294967253,4294967207,30,10216,6113,12013,271,377,4294967207,13126,4294963360,9495,325,271,259,4294966723,4294966723,4294966723
779302860,6466390,6474712,15281,4438,3376,4294967292,4294967043,47,10167,6132,12000,278,365,4294967232,13143,4294963313,9403,409,290,224,4294966710,4294966710,4294966710
779308854,6466087,6474614,15315,4450,3458,43,4294966941,65,10132,6101,12079,230,383,4294967245,13155,4294963412,9439,437,297,199,4294966714,4294966714,4294966714
779314840,6466299,6475357,15311,4391,3416,28,4294966893,61,10139,6152,12274,222,346,4294967251,13147,4294963465,9392,369,320,206,4294966719,4294966719,4294966719
779320859,6465805,6474406,15363,4389,3261,52,4294966877,37,10192,6199,12164,169,323,16,13219,4294963448,9344,373,329,214,4294966710,4294966710,4294966710
779326857,6465689,6474089,15362,4391,3125,71,4294966819,34,10148,6288,12128,80,331,34,13192,4294963465,9491,372,305,255,4294966709,4294966709,4294966709
779332851,6465674,6474290,15437,4462,3131,73,4294966851,12,10213,6246,12184,18,348,23,13218,4294963502,9486,396,266,247,4294966715,4294966715,4294966715
779338845,6466067,6473990,15341,4478,3185,39,4294966933,4294967285,10242,6306,12190,30,327,54,13162,4294963516,9447,427,282,252,4294966719,4294966719,4294966719
779344845,6466003,6474349,15338,4409,3085,4294967284,4294967035,4294967244,10202,6294,12141,81,331,61,13146,4294963511,9462,404,237,273,4294966719,4294966719,4294966719
779350863,6465357,6473479,15332,4502,3111,4294967247,4294967142,4294967235,10241,6297,12048,97,288,37,13139,4294963490,9578,401,190,293,4294966710,4294966710,4294966710
779356835,6465626,6473649,15312,4426,3137,4294967229,4294967215,4294967233,10224,6154,12126,61,290,27,13133,4294963458,9476,349,184,320,4294966726,4294966726,4294966726
779362846,6465713,6474486,15288,4454,3269,4294967176,4294967227,4294967210,10224,6131,12159,91,286,21,13179,4294963411,9644,289,165,315,4294966719,4294966719,4294966719
779368844,6465466,6473661,15261,4539,3237,4294967133,4294967219,4294967184,10202,6138,12122,121,275,4294967293,13140,4294963444,9626,278,209,320,4294966719,4294966719,4294966719
779374847,6465313,6473418,15366,4491,3233,4294967088,4294967142,4294967188,10209,6119,12127,178,301,15,13165,4294963422,9528,318,234,337,4294966718,4294966718,4294966718
779380855,6465898,6473569,15366,4471,3280,4294967078,4294967041,4294967181,10200,6156,12091,187,317,13,13118,4294963455,9472,345,284,365,4294966711,4294966711,4294966711
779386838,6465475,6473963,15365,4500,3350,4294967058,4294966961,4294967145,10184,6215,12203,169,382,56,13164,4294963509,9421,389,361,377,4294966722,4294966722,4294966722
779392844,6465510,6473537,15384,4457,3209,4294967092,4294966891,4294967151,10202,6240,12141,90,395,70,13120,4294963450,9441,321,415,420,4294966717,4294966717,4294966717
779398848,6465849,6473345,15358,4438,3093,4294967158,4294966903,4294967154,10142,6204,12081,34,382,95,13168,4294963471,9623,247,419,438,4294966719,4294966719,4294966719
779404860,6465482,6473245,15388,4386,3041,4294967229,4294966932,4294967157,10153,6286,12052,7,364,107,13196,4294963460,9601,201,422,456,4294966711,4294966711,4294966711
779410851,6465493,6472971,15289,4395,3029,4294967282,4294967043,4294967178,10134,6208,12195,25,338,121,13106,4294963501,9523,153,432,451,4294966716,4294966716,4294966716
779416846,6465654,6473266,15201,4397,3020,3,4294967168,4294967179,10146,6214,12067,75,318,105,13147,4294963462,9644,139,426,435,4294966716,4294966716,4294966716
779422858,6465912,6473682,15125,4371,3206,4294967221,4294967284,4294967175,10091,6153,12109,116,316,122,13101,4294963463,9649,122,363,446,4294966708,4294966708,4294966708
779428854,6465182,6473375,15094,4379,3371,4294967122,4294967290,4294967215,10101,6184,12090,153,310,89,13160,4294963421,9638,149,318,411,4294966712,4294966712,4294966712
779434844,6465948,6473077,15122,4478,3342,4294967062,4294967229,4294967230,10104,6095,12109,170,288,82,13120,4294963429,9708,192,305,396,4294966717,4294966717,4294966717
779440835,6466442,6475272,15168,4437,3438,4294967061,4294967141,4294967263,10060,6118,12155,213,269,53,13149,4294963452,9583,202,289,402,4294966725,4294966725,4294966725
779446836,6466588,6477765,15199,4488,3314,4294967103,4294967102,14,10061,6128,12136,226,240,31,13185,4294963355,9615,257,289,379,4294966725,4294966725,4294966725
779452837,6467426,6479989,15262,4498,3321,4294967143,4294967080,50,10095,6107,12097,184,240,20,13085,4294963407,9544,327,258,381,4294966724,4294966724,4294966724
779458853,6469865,6484207,15258,4460,3213,4294967176,4294967091,74,10082,6092,12168,134,240,24,13202,4294963375,9594,387,245,371,4294966715,4294966715,4294966715
779464846,6468251,6482270,15253,4520,3121,4294967212,4294967119,73,10049,6099,12108,149,243,18,13117,4294963303,9535,473,268,333,4294966718,4294966718,4294966718
779470838,6466194,6472825,15285,4465,3081,4294967246,4294967116,88,10121,6155,12256,110,233,28,13148,4294963362,9516,504,261,312,4294966725,4294966725,4294966725
779476837,6464653,6467384,15190,4489,3122,4294967251,4294967092,94,10072,6231,12167,99,182,10,13141,4294963418,9467,471,257,276,4294966724,4294966724,4294966724
779482846,6463994,6468348,15254,4515,3069,4294967210,4294967040,85,10087,6228,12209,71,166,7,13165,4294963447,9579,439,266,275,4294966717,4294966717,4294966717
779488866,6462921,6469194,15264,4491,3083,4294967164,4294967039,49,10075,6204,12255,37,137,36,13188,4294963511,9513,378,234,249,4294966704,4294966704,4294966704
779494850,6463791,6470055,15317,4441,3171,4294967113,4294966989,37,10087,6206,12216,76,88,2,13149,4294963534,9432,336,203,251,4294966716,4294966716,4294966716
779500859,6464731,6472061,15379,4376,3107,4294966993,4294966927,4,10136,6202,12042,74,50,4294967268,13153,4294963539,9567,270,176,242,4294966710,4294966710,4294966710
779506846,6465163,6473299,15405,4379,3043,4294966921,4294966976,4294967245,10128,6095,11988,104,27,4294967246,13148,4294963536,9598,212,149,238,4294966721,4294966721,4294966721
779512843,6465850,6474050,15372,4359,2851,4294966895,4294967041,4294967204,10132,6079,12068,86,47,4294967230,13131,4294963478,9584,168,134,234,4294966720,4294966720,4294966720
779518851,6466705,6474599,15352,4255,3003,4294966878,4294967147,4294967120,10075,5986,12072,125,84,4294967211,13175,4294963401,9695,158,140,224,4294966714,4294966714,4294966714
779524831,6465909,6474742,15293,4337,3223,4294966957,4294967260,4294967021,10188,5984,12134,204,139,4294967170,13152,4294963319,9605,180,126,206,4294966729,4294966729,4294966729
779530852,6466019,6474745,15260,4341,3264,4294966978,0,4294967041,10131,6019,12016,207,159,4294967168,13173,4294963320,9534,218,82,214,4294966714,4294966714,4294966714
779536841,6466606,6474982,15197,4473,3350,4294966929,4294967269,4294967084,10154,6117,12021,276,218,4294967148,13162,4294963290,9397,240,80,183,4294966722,4294966722,4294966722
779542842,6466932,6475454,15271,4595,3520,4294966918,4294967127,4294967202,10171,6108,12169,340,231,4294967183,13114,4294963375,9344,318,130,178,4294966721,4294966721,4294966721
779548861,6466266,6475128,15234,4532,3523,4294966973,4294966940,4294967287,10165,6029,12311,429,244,4294967189,13021,4294963395,9526,365,186,191,4294966707,4294966707,4294966707
779554849,6466515,6474945,15239,4487,3401,4294967074,4294966848,58,10143,6007,12410,431,175,4294967218,12934,4294963408,9612,423,268,180,4294966717,4294966717,4294966717
779560843,6466823,6475561,15219,4483,3250,4294967245,4294966931,56,10101,6030,12285,312,101,4294967229,12950,4294963350,9583,506,289,169,4294966720,4294966720,4294966720
779566858,6466562,6475613,15236,4466,3168,4294967279,4294967123,55,10127,6193,12039,175,94,4294967281,13053,4294963310,9680,475,236,167,4294966710,4294966710,4294966710
779572835,6466479,6475674,15205,4451,3196,4294967163,39,4294967294,10193,6216,11938,137,108,27,13105,4294963364,9679,377,168,176,4294966723,4294966723,4294966723
779578859,6467113,6476692,15238,4443,3196,4294966958,143,4294967269,10186,6127,11977,154,93,23,13130,4294963473,9677,271,115,191,4294966712,4294966712,4294966712
779584848,6467145,6475900,15294,4406,3144,4294966871,163,4294967268,10257,6031,11828,166,114,4294967293,13151,4294963421,9550,144,91,233,4294966719,4294966719,4294966719
779590838,6466667,6475696,15360,4452,3080,4294966906,126,4294967273,10246,6110,12081,145,99,4294967235,13182,4294963352,9504,98,81,257,4294966725,4294966725,4294966725
779596849,6466962,6476565,15362,4355,3037,4294967068,93,4294967262,10270,6144,12033,141,87,4294967222,13258,4294963266,9575,88,25,276,4294966713,4294966713,4294966713
779602838,6467875,6477248,15377,4362,3199,4294967169,31,4294967243,10275,6167,12138,184,56,4294967203,13371,4294963285,9618,88,4294967251,286,4294966722,4294966722,4294966722
779608845,6466902,6476848,15401,4392,3300,4294967174,4294967218,4294967211,10303,6260,12150,268,60,4294967175,13385,4294963191,9527,172,4294967230,283,4294966719,4294966719,4294966719
779614851,6467564,6477038,15425,4324,3401,4294967138,4294967106,4294967200,10279,6279,12249,353,28,4294967179,13374,4294963287,9538,295,4294967207,279,4294966716,4294966716,4294966716
