t_us,ads_ch1,ads_ch2,ax0,ay0,az0,gx0,gy0,gz0,ax1,ay1,az1,gx1,gy1,gz1,ax2,ay2,az2,gx2,gy2,gz2,dt0_us,dt1_us,dt2_us
936500838,6467036,6478258,13977,5063,6149,104,232,4294967202,11106,7167,10794,62,537,63,14193,4294963966,8215,225,840,396,4294966722,4294966722,4294966722
936506838,6466507,6477923,13978,5077,6207,86,204,4294967173,11067,7064,10659,40,504,14,14273,4294963915,8180,298,825,324,4294966722,4294966722,4294966722
936512867,6466744,6478445,13960,5047,6168,61,133,4294967172,11100,7051,10741,5,494,4294967278,14275,4294963955,8190,255,854,336,4294966704,4294966704,4294966704
936518855,6466938,6478701,13982,5031,6140,89,98,4294967150,11045,7102,10688,4294967290,420,4294967286,14232,4294963931,8178,268,800,364,4294966717,4294966717,4294966717
936524852,6466258,6478297,13939,5034,6220,94,66,4294967150,11105,7157,10771,18,376,4294967281,14304,4294963959,8190,225,757,352,4294966713,4294966713,4294966713
936530853,6465298,6477803,14007,5082,6264,101,49,4294967133,11197,7204,10825,18,307,0,14283,4294963945,8156,173,712,398,4294966714,4294966714,4294966714
936536855,6465448,6477981,13949,5010,6272,119,24,4294967113,11161,7158,10947,25,229,20,14277,4294963974,8260,165,643,427,4294966711,4294966711,4294966711
936542839,6466455,6478434,13976,5032,6212,140,4294967291,4294967110,11174,7210,10964,84,139,64,14271,4294964041,8241,176,604,473,4294966721,4294966721,4294966721
936548835,6466409,6478026,13994,5118,6331,179,4294967235,4294967127,11200,7176,10947,148,138,81,14336,4294964105,8236,194,588,539,4294966726,4294966726,4294966726
936554843,6466896,6478005,13980,5093,6349,131,4294967140,4294967109,11167,7283,10855,188,102,186,14282,4294964190,8180,228,610,551,4294966723,4294966723,4294966723
936560844,6467125,6478157,14022,5118,6281,153,4294967054,4294967112,11206,7360,10820,251,141,285,14253,4294964191,8204,240,646,636,4294966717,4294966717,4294966717
936566855,6466580,6477654,14005,5100,6301,107,4294966984,4294967116,11202,7361,10746,296,195,339,14330,4294964161,8140,333,673,677,4294966714,4294966714,4294966714
936572832,6466767,6477846,14046,5154,6320,111,4294966926,4294967130,11180,7368,10777,271,238,361,14290,4294964109,8173,399,713,724,4294966727,4294966727,4294966727
936578836,6466798,6477965,14073,5151,6264,68,4294966893,4294967127,11119,7327,10712,136,254,379,14319,4294964138,8292,473,668,718,4294966726,4294966726,4294966726
936584841,6466041,6477586,14201,5204,6200,4294967290,4294966849,4294967130,11058,7324,10738,4294967286,283,372,14319,4294964067,8334,485,616,701,4294966721,4294966721,4294966721
936590853,6465455,6477280,14259,5171,6074,4294967252,4294966830,4294967138,10958,7244,10700,4294967170,272,308,14306,4294964081,8436,496,598,703,4294966714,4294966714,4294966714
936596842,6465423,6477102,14239,5172,6099,4294967192,4294966867,4294967156,10924,7307,10768,4294967117,301,179,14195,4294964098,8468,507,546,660,4294966723,4294966723,4294966723
936602854,6465146,6476856,14257,5234,6013,4294967171,4294966885,4294967161,10913,7160,10815,4294967139,287,174,14167,4294964124,8473,504,510,607,4294966712,4294966712,4294966712
936608855,6465081,6476651,14318,5220,5958,4294967200,4294966939,4294967181,10814,7054,10698,4294967276,304,100,14100,4294964263,8461,479,542,586,4294966714,4294966714,4294966714
936614847,6465085,6476669,14261,5199,6006,4294967212,4294967023,4294967230,10791,7000,10629,128,337,52,14071,4294964328,8375,428,654,620,4294966718,4294966718,4294966718
936620837,6465947,6476969,14260,5208,5972,4294967261,4294967084,4294967250,10681,6942,10602,326,416,18,13965,4294964380,8287,364,746,588,4294966722,4294966722,4294966722
936626859,6466154,6477050,14189,5189,6055,4294967256,4294967164,4294967274,10716,7027,10633,439,472,4294967283,13969,4294964347,8274,325,814,577,4294966709,4294966709,4294966709
936632851,6466197,6476900,14161,5138,6072,4294967261,4294967250,8,10586,7047,10630,615,536,4294967272,13893,4294964265,8431,473,842,566,4294966714,4294966714,4294966714
936638843,6466449,6477117,14094,5151,6063,4294967264,7,18,10513,7119,10573,731,553,4294967288,13878,4294964194,8476,674,755,563,4294966723,4294966723,4294966723
936644844,6465689,6477011,14017,5136,6027,4294967262,90,14,10526,7087,10515,770,614,4,13820,4294964105,8574,780,629,493,4294966719,4294966719,4294966719
936650840,6465582,6477618,13985,5111,6130,4294967195,132,4294967292,10533,7086,10485,715,658,46,13789,4294964105,8505,789,569,418,4294966724,4294966724,4294966724
936656860,6466154,6478263,13970,5080,6153,4294967170,141,4294967282,10602,6990,10618,772,652,23,13749,4294964007,8455,660,464,308,4294966707,4294966707,4294966707
936662837,6468065,6480103,13904,5115,6137,4294967140,143,4294967264,10646,6973,10797,753,552,63,13733,4294964033,8409,535,365,195,4294966726,4294966726,4294966726
936668859,6470760,6482274,13829,5139,6123,4294967098,140,4294967252,10700,6929,10617,836,516,38,13774,4294964024,8512,275,315,153,4294966711,4294966711,4294966711
936674845,6473120,6486814,13780,5148,6142,4294967087,124,4294967267,10757,6950,10612,934,489,35,13771,4294963983,8562,41,257,74,4294966722,4294966722,4294966722
936680859,6469586,6483051,13654,5216,6145,4294967087,114,1,10804,6917,10584,944,545,34,13758,4294964011,8453,4294967226,176,29,4294966709,4294966709,4294966709
936686846,6467539,6474842,13664,5247,6119,4294967110,95,22,10827,6903,10705,939,503,27,13814,4294963995,8410,4294967200,190,43,4294966718,4294966718,4294966718
936692860,6463852,6472294,13638,5269,6189,4294967111,44,65,10815,6833,10786,993,455,4,13718,4294964009,8518,4294967262,176,41,4294966707,4294966707,4294966707
936698857,6463203,6472750,13707,5311,6116,4294967125,4294967281,97,10867,6803,10829,1052,430,4294967295,13671,4294964122,8548,78,129,73,4294966713,4294966713,4294966713
936704865,6463346,6474142,13835,5272,6066,4294967121,4294967173,113,10894,6840,10938,1165,404,4294967278,13808,4294964084,8613,163,161,115,4294966708,4294966708,4294966708
936710840,6464088,6475128,13858,5266,6091,4294967114,4294967096,115,10878,6926,10779,1278,388,4294967233,13802,4294964012,8625,218,191,194,4294966722,4294966722,4294966722
936716863,6465396,6476414,14041,5258,5946,4294967085,4294967051,109,10855,6992,10735,1306,339,4294967184,13864,4294963988,8574,221,174,226,4294966710,4294966710,4294966710
936722860,6466210,6477385,14082,5145,5861,4294967055,4294967043,78,10865,7050,10606,1324,355,4294967147,14022,4294963884,8448,162,143,279,4294966710,4294966710,4294966710
936728841,6465927,6477426,14118,5217,5848,4294967047,4294967022,41,10977,7133,10573,1373,464,4294967172,14223,4294963934,8370,116,118,374,4294966718,4294966718,4294966718
936734839,6466517,6477586,14080,5110,6026,4294967037,4294967084,4294967248,10995,7260,10576,1442,636,4294967198,14232,4294963831,8352,23,133,379,4294966721,4294966721,4294966721
936740843,6466924,6478018,14022,5020,6122,4294967019,4294967147,4294967166,10967,7258,10594,1572,648,4294967228,14282,4294963839,8441,4294967198,104,355,4294966719,4294966719,4294966719
936746836,6466461,6477818,13961,4980,6364,4294966962,4294967191,4294967066,10985,7321,10616,1614,628,4294967268,14300,4294963736,8552,4294967023,36,327,4294966721,4294966721,4294966721
936752859,6467011,6478262,13831,5000,6421,4294966875,4294967221,4294966997,11004,7331,10561,1610,636,39,14248,4294963691,8578,4294967066,4294967271,281,4294966711,4294966711,4294966711
936758837,6467324,6478748,13883,5044,6501,4294966879,4294967274,4294966973,11031,7255,10694,1613,652,42,14179,4294963671,8626,4294967247,4294967194,245,4294966723,4294966723,4294966723
936764847,6467172,6478615,13925,5054,6442,4294966877,4294967240,4294967003,11043,7256,10667,1566,724,100,14142,4294963732,8653,251,4294967202,238,4294966719,4294966719,4294966719
936770839,6466854,6478352,14130,5089,6214,4294966953,4294967103,4294967045,11028,7232,10756,1537,820,123,14092,4294963773,8781,553,4294967258,214,4294966721,4294966721,4294966721
936776832,6467139,6478818,14197,5062,6158,4294967112,4294966992,4294967106,10963,7112,10579,1580,841,147,13996,4294963841,8899,809,4294967250,203,4294966727,4294966727,4294966727
936782844,6467520,6479211,14212,5109,6132,4294967193,4294966928,4294967129,11045,7215,10401,1664,836,131,13924,4294963842,8902,967,4294967263,222,4294966718,4294966718,4294966718
936788861,6467358,6478966,14344,5051,5919,4294967276,4294966926,4294967146,11069,7308,10196,1549,891,108,13996,4294963888,8809,1077,4294967255,217,4294966707,4294966707,4294966707
936794841,6467998,6479527,14271,5070,5971,4294967261,4294967023,4294967132,11185,7370,10088,1582,938,113,14014,4294963809,8628,983,55,226,4294966719,4294966719,4294966719
936800833,6468143,6479683,14296,4994,5821,4294967222,4294967180,4294967100,11307,7468,10153,1614,957,73,14049,4294963828,8428,939,4294967295,213,4294966728,4294966728,4294966728
936806859,6467079,6479094,14290,4889,5828,4294967166,82,4294967039,11298,7380,10302,1499,881,45,14141,4294963792,8224,793,4294967292,200,4294966709,4294966709,4294966709
936812849,6467564,6479458,14199,4951,5957,4294967142,236,4294966964,11232,7263,10555,1564,743,25,14280,4294963804,8101,579,36,242,4294966716,4294966716,4294966716
936818861,6468122,6479550,14073,5055,6006,4294967157,429,4294966896,11203,7370,10599,1991,621,30,14280,4294963842,8145,394,4294967262,277,4294966711,4294966711,4294966711
936824849,6467243,6479042,14213,4940,5806,4294967095,616,4294966910,11050,7382,10730,2043,567,4294967248,14326,4294963924,8182,341,4294967207,316,4294966717,4294966717,4294966717
936830851,6466879,6478875,14054,4959,5987,4294967189,717,4294966891,10941,7385,10712,2160,574,4294967294,14267,4294964028,8248,280,4294967128,394,4294966718,4294966718,4294966718
936836855,6467140,6479361,14015,5024,6074,4294967199,758,4294966887,10944,7467,10673,2126,650,40,14291,4294964111,8225,370,4294967117,494,4294966708,4294966708,4294966708
936842843,6467746,6479646,13809,5225,6316,4294967081,671,4294966833,10932,7585,10654,1986,792,65,14302,4294964198,8199,460,4294967160,539,4294966717,4294966717,4294966717
936848848,6467353,6479961,13996,5104,6334,4294966923,616,4294966811,10923,7481,10526,1881,1000,160,14281,4294964254,8095,650,4294967180,584,4294966721,4294966721,4294966721
936854848,6467808,6480242,14003,5108,6240,4294967015,430,4294966826,10865,7537,10551,1803,1097,105,14329,4294964196,8072,819,4294967241,637,4294966717,4294966717,4294966717
936860853,6468665,6480721,13933,5201,6375,4294967090,257,4294966841,10956,7757,10544,1557,1242,316,14241,4294964205,8115,948,71,554,4294966714,4294966714,4294966714
936866831,6468161,6480740,13826,5224,6438,4294966924,59,4294966811,10654,7516,10563,1778,1244,354,14284,4294964217,8081,911,171,479,4294966730,4294966730,4294966730
936872842,6468202,6480928,14095,5088,6383,4294966883,4294967244,4294966827,10653,7530,10499,1738,1365,315,14214,4294964218,7993,819,402,527,4294966722,4294966722,4294966722
936878842,6468664,6481056,14053,5136,6347,4294966997,4294967086,4294966843,10657,7620,10495,1688,1345,283,14082,4294964258,7936,622,625,364,4294966720,4294966720,4294966720
936884861,6467750,6480204,13949,5119,6279,4294967136,4294966952,4294966867,10523,7561,10492,1339,1316,239,14129,4294964314,7923,333,810,299,4294966709,4294966709,4294966709
936890850,6467456,6480035,13995,5111,6358,4294967110,4294966867,4294966861,10537,7595,10611,1085,1296,182,13934,4294964274,7874,175,936,164,4294966716,4294966716,4294966716
936896850,6467609,6479914,13954,5189,6317,4294967119,4294966818,4294966876,10547,7644,10565,840,1258,56,14012,4294964308,7826,4294967249,953,38,4294966714,4294966714,4294966714
936902840,6467246,6479581,13978,5048,6219,4294967115,4294966853,4294966913,10521,7611,10555,756,1213,44,13953,4294964260,7894,4294967059,993,4294967283,4294966725,4294966725,4294966725
936908841,6466661,6479327,14039,5149,6165,4294967139,4294966910,4294966914,10508,7655,10442,765,1085,4294967194,13860,4294964205,7917,4294966859,793,4294967174,4294966723,4294966723,4294966723
936916867,6467191,6479387,14051,5202,6317,4294966991,4294967018,4294966939,10592,7626,10513,657,1162,4294967209,13941,4294964213,8051,4294966704,615,4294967122,4294966702,4294966702,4294966702
936924867,6466952,6478510,14023,5203,6183,4294966955,4294967277,4294967010,10473,7516,10478,805,1260,4294967083,13743,4294964154,8168,4294966595,250,4294967058,4294966704,4294966704,4294966704
936932854,6466696,6478483,14017,5345,6189,4294966903,168,4294967049,10598,7858,10505,1090,1326,4294967070,13950,4294964123,8191,4294966613,4294967264,4294967135,4294966716,4294966716,4294966716
936940846,6466727,6477755,14053,5266,6224,4294966957,401,4294967107,10778,7944,10669,888,1308,4294966944,14238,4294963977,8239,4294966607,4294967007,4294967092,4294966721,4294966721,4294966721
936948846,6466247,6477868,13994,5301,6327,4294966834,533,4294967135,10658,7978,10856,1163,1109,4294967113,14129,4294963837,8408,4294966813,4294966778,4294967118,4294966720,4294966720,4294966720
936956849,6466346,6477136,13987,5335,6339,4294966903,564,4294967217,10801,7913,10888,1150,906,4294967171,14396,4294963910,8476,4294966890,4294966563,4294967105,4294966715,4294966715,4294966715
936964840,6466595,6477813,13901,5378,6371,4294966839,528,4294967220,10897,7824,10814,901,694,4294967114,14591,4294963867,8517,4294966809,4294966648,4294967116,4294966721,4294966721,4294966721
936970853,6466462,6478086,13951,5288,6421,4294966818,452,4294967214,11011,7822,10766,1065,611,4294967203,14585,4294963785,8506,4294966938,4294966722,4294967220,4294966714,4294966714,4294966714
936978841,6466479,6477380,13895,5312,6407,4294966939,326,4294967220,11006,7777,10730,865,468,4294967203,14601,4294963850,8549,4294966977,4294966953,79,4294966724,4294966724,4294966724
936984845,6466019,6477562,13985,5321,6347,4294966955,246,4294967224,10999,7717,10762,823,459,4294967173,14595,4294963809,8581,4294967056,4294967121,208,4294966715,4294966715,4294966715
936990837,6464995,6476681,13997,5171,6247,4294966960,189,4294967212,10994,7691,10681,787,519,4294967173,14546,4294963853,8651,4294967115,4294967223,256,4294966725,4294966725,4294966725
936996851,6466396,6477275,13910,5161,6234,4294966986,86,4294967197,10931,7746,10660,587,577,4294967036,14728,4294963627,8367,55,132,573,4294966713,4294966713,4294966713
937002840,6466468,6477030,13915,5152,6260,4294967008,4294967279,4294967164,10847,7380,10674,404,669,4294967026,14402,4294963933,8346,451,384,678,4294966721,4294966721,4294966721
937008866,6465880,6476532,14016,5060,6247,4294967042,4294967192,4294967166,10772,7459,10762,581,874,4294967040,14332,4294964105,8268,527,463,575,4294966703,4294966703,4294966703
937014838,6465862,6476439,14015,5102,6204,4294967127,4294967110,4294967185,10662,7468,10772,486,1067,4294967048,14333,4294963955,8387,572,499,608,4294966722,4294966722,4294966722
937020855,6466183,6477023,14079,5106,6259,4294967258,4294967068,4294967197,10644,7609,10859,676,1148,4294966986,14165,4294963980,8404,669,517,525,4294966712,4294966712,4294966712
937026830,6465832,6476807,14050,5112,6175,75,4294967084,4294967161,10700,7708,10759,219,1338,4294966902,14201,4294963942,8344,670,597,450,4294966726,4294966726,4294966726
937032852,6465815,6476812,14027,5060,6283,150,4294967184,4294967145,10601,7594,10646,317,1393,4294966995,14239,4294963915,8170,609,789,425,4294966718,4294966718,4294966718
937038859,6466157,6476975,13939,5106,6208,194,35,4294967072,10553,7674,10719,94,1571,4294966995,14093,4294963974,8040,494,906,425,4294966707,4294966707,4294966707
937044841,6466078,6477435,13948,5132,6298,226,171,4294967050,10482,7627,10543,279,1502,4294967026,13999,4294964067,8092,162,945,272,4294966722,4294966722,4294966722
937050841,6465768,6477298,13834,5099,6366,153,277,4294966998,10608,7628,10550,505,1351,4294966972,14116,4294964023,7937,4294967048,887,112,4294966724,4294966724,4294966724
937056828,6466370,6477496,13788,5094,6379,58,339,4294966978,10597,7789,10528,616,1194,4294967060,14054,4294963960,7903,4294966900,896,86,4294966730,4294966730,4294966730
937062832,6465893,6477173,13715,5191,6445,4294967215,361,4294966924,10634,7746,10642,719,975,4294967113,14143,4294963920,8033,4294966917,824,22,4294966724,4294966724,4294966724
937068848,6465116,6476634,13781,5145,6406,4294966971,372,4294966907,10632,7939,10649,829,675,4294967147,14056,4294963940,8174,4294967057,571,0,4294966720,4294966720,4294966720
937074854,6466165,6477287,13648,5241,6346,4294966991,344,4294966912,10647,7880,10637,749,376,4294967203,14316,4294963776,8347,4294966976,405,4294967096,4294966710,4294966710,4294966710
937080851,6465907,6476754,13754,5324,6434,4294966959,293,4294966969,10715,7789,10613,768,170,4294967218,14131,4294963916,8366,4294966988,217,4294967173,4294966715,4294966715,4294966715
937086855,6465390,6476331,13748,5287,6386,4294967058,160,4294967008,10697,7715,10621,688,4294967295,4294967235,14238,4294964028,8392,4294966976,17,4294967037,4294966714,4294966714,4294966714
937092867,6465397,6476731,13757,5365,6456,4294967107,40,4294967059,10751,7693,10592,542,4294967193,4294967215,14234,4294963891,8453,4294966889,4294967165,4294967133,4294966703,4294966703,4294966703
937100835,6465779,6476730,13908,5346,6471,4294967072,4294967106,4294967088,10800,7690,10581,392,4294967165,4294967212,14272,4294963879,8377,4294967117,4294967046,4294967108,4294966727,4294966727,4294966727
937108842,6465250,6476324,13927,5389,6471,4294967094,4294966942,4294967113,10811,7734,10611,276,4294967179,4294967192,14331,4294963902,8420,4294967177,4294967016,4294967069,4294966721,4294966721,4294966721
937116862,6465865,6476890,14016,5284,6433,4294966985,4294966825,4294967103,10928,7887,10676,187,4294967210,4294967202,14357,4294963871,8279,4294967290,4294967169,4294967170,4294966710,4294966710,4294966710
937124841,6464901,6476153,14100,5217,6379,4294966965,4294966813,4294967065,10990,7924,10664,74,4294967217,4294967227,14295,4294963955,8330,61,120,4294967235,4294966720,4294966720,4294966720
937130833,6465589,6476888,14157,5283,6387,4294966856,4294966860,4294967043,10923,7945,10686,77,0,4294967284,14371,4294963954,8293,8,195,4294967136,4294966727,4294966727,4294966727
937136836,6465668,6476518,14226,5054,6219,4294966818,4294966946,4294967034,10939,7945,10764,101,126,23,14504,4294963711,8207,134,352,4294967212,4294966727,4294966727,4294966727
937142840,6465517,6476551,14173,5101,6292,4294966942,4294966996,4294967000,10932,7937,10784,163,217,59,14477,4294963828,8248,315,484,4294967289,4294966720,4294966720,4294966720
937148834,6465362,6476912,14128,5035,6260,4294967081,4294967095,4294967001,10885,7919,10794,155,319,74,14284,4294963876,8299,365,585,89,4294966726,4294966726,4294966726
937154847,6465527,6476960,14130,5017,6256,4294967083,4294967149,4294967011,10798,7895,10760,137,383,87,14254,4294963957,8302,268,503,4294967254,4294966721,4294966721,4294966721
937160831,6465615,6476781,14061,5018,6352,4294967263,4294967248,4294967015,10773,7849,10715,122,416,85,14240,4294963918,8280,270,636,4294967293,4294966725,4294966725,4294966725
937166841,6465002,6476571,14081,4964,6320,41,2,4294967008,10668,7827,10768,50,428,59,14200,4294963934,8095,291,738,11,4294966720,4294966720,4294966720
937172844,6465472,6477094,13976,5043,6320,103,31,4294966991,10607,7823,10766,74,429,76,14359,4294963765,7983,568,997,317,4294966719,4294966719,4294966719
937178847,6465467,6477323,13920,5136,6494,79,64,4294967044,10516,7812,10782,5,353,42,14297,4294964025,7871,947,1264,707,4294966718,4294966718,4294966718
937184863,6464806,6476937,13880,5000,6486,119,23,4294967048,10447,7838,10735,4294967267,240,27,14058,4294964254,7906,1339,1649,1016,4294966707,4294966707,4294966707
937190843,6464705,6476965,13898,5033,6490,24,4294967253,4294966998,10411,7827,10686,4294967218,163,4294967282,13848,4294964618,8146,250,1512,417,4294966722,4294966722,4294966722
937196843,6464895,6476689,13852,5089,6505,130,4294967156,4294967016,10455,7769,10604,4294967228,191,18,13977,4294964202,8169,4294967258,1657,527,4294966720,4294966720,4294966720
937202864,6465307,6476712,13846,5180,6512,36,4294967026,4294966984,10439,7748,10535,16,350,75,14073,4294964164,8169,4294967017,1396,432,4294966709,4294966709,4294966709
937208851,6465133,6477038,13843,5231,6534,77,4294966955,4294967004,10442,7797,10435,40,509,96,14110,4294964041,8184,4294966997,1208,547,4294966714,4294966714,4294966714
937214838,6465540,6477127,13917,5213,6376,86,4294966890,4294967017,10432,7862,10440,62,562,123,14303,4294963921,8156,4294967097,1095,647,4294966723,4294966723,4294966723
937220841,6466092,6477161,13897,5315,6206,200,4294966911,4294967058,10444,7845,10469,112,551,162,13938,4294964095,8379,4294967051,966,380,4294966721,4294966721,4294966721
937226849,6465750,6477226,13884,5416,6174,223,4294966948,4294967093,10469,7738,10569,115,489,148,14009,4294963880,8223,4294966969,850,289,4294966720,4294966720,4294966720
937232851,6465483,6476789,13785,5313,6176,186,4294967036,4294967102,10478,7775,10636,111,473,143,14099,4294963897,8306,4294967006,807,223,4294966719,4294966719,4294966719
937238840,6466356,6477322,13838,5418,6169,154,4294967167,4294967112,10511,7763,10665,4294967278,401,135,14000,4294963919,8259,4294967030,751,185,4294966724,4294966724,4294966724
937244843,6465531,6476986,13864,5466,6143,44,18,4294967095,10470,7826,10712,4294967237,379,76,13995,4294963974,8330,4294967064,726,152,4294966718,4294966718,4294966718
937250847,6465114,6476909,13805,5431,6124,4294967262,157,4294967094,10492,7790,10752,4294967203,287,40,14043,4294964019,8294,4294967055,692,133,4294966717,4294966717,4294966717
937256857,6465857,6477385,13791,5429,6315,4294967173,198,4294967103,10451,7740,10683,4294967238,261,8,14028,4294964052,8267,4294967005,678,131,4294966711,4294966711,4294966711
937262852,6465488,6476775,13741,5450,6359,4294967109,193,4294967135,10438,7740,10727,4294967218,203,4294967243,14090,4294964051,8398,4294966941,623,85,4294966714,4294966714,4294966714
937268851,6464667,6476147,13823,5512,6369,4294967102,186,4294967157,10395,7730,10790,4294967230,176,4294967177,14079,4294964054,8513,4294966948,548,130,4294966716,4294966716,4294966716
937274856,6465310,6476353,13823,5432,6378,4294967116,92,4294967198,10368,7755,10800,4294967240,179,4294967125,14080,4294964019,8631,4294966956,516,107,4294966713,4294966713,4294966713
937280844,6465351,6476307,13905,5435,6425,4294967102,50,4294967240,10380,7696,10907,4294967145,155,4294967085,14025,4294963927,8652,4294967036,589,160,4294966717,4294966717,4294966717
937286843,6464709,6475391,13810,5484,6467,4294967085,4294967262,4294967252,10356,7678,10800,4294967096,122,4294967022,14066,4294963887,8664,4294967127,512,147,4294966720,4294966720,4294966720
937292849,6464230,6475431,13829,5471,6399,4294967113,4294967235,4294967293,10394,7625,10722,4294966978,147,4294966996,13913,4294963926,8802,4294967263,491,94,4294966717,4294966717,4294966717
937298827,6465522,6476222,13813,5487,6454,4294967133,4294967160,35,10383,7730,10856,4294966883,172,4294966965,13996,4294963898,8742,64,532,22,4294966727,4294966727,4294966727
937304840,6465280,6476150,13818,5483,6453,4294967121,4294967153,19,10327,7669,10870,4294966809,188,4294966955,14012,4294963889,8709,248,663,40,4294966722,4294966722,4294966722
937310850,6465119,6476143,13830,5472,6431,4294967109,4294967105,58,10384,7654,10938,4294966832,205,4294966957,13913,4294963912,8686,332,826,76,4294966717,4294966717,4294966717
937316837,6465423,6477311,13832,5410,6405,4294967076,4294967071,48,10464,7767,10845,4294966935,217,4294966953,13839,4294963891,8611,321,940,112,4294966726,4294966726,4294966726
937322857,6465727,6477765,13824,5375,6363,4294967066,4294967051,10,10546,7698,10880,4294967036,267,4294966979,13865,4294963792,8701,374,1036,123,4294966713,4294966713,4294966713
937328838,6466275,6478460,13822,5424,6463,4294967032,4294967021,4,10573,7694,10831,4294967071,288,4294966999,13727,4294963785,8793,272,1111,146,4294966723,4294966723,4294966723
937334870,6469101,6480532,13780,5397,6414,4294967019,4294967019,4294967285,10524,7673,10862,4294967131,313,4294967025,13734,4294963739,8856,161,1058,67,4294966702,4294966702,4294966702
937340857,6471965,6483915,13719,5393,6439,4294967022,4294967002,4294967265,10615,7586,10824,4294967137,354,4294967031,13719,4294963693,8770,3,1037,21,4294966712,4294966712,4294966712
937346836,6469898,6484060,13714,5338,6492,4294967034,4294967009,4294967265,10611,7573,10814,4294967172,358,4294967045,13754,4294963601,8706,4294967117,984,16,4294966726,4294966726,4294966726
937352855,6466095,6477413,13661,5305,6673,4294967062,4294966979,4294967246,10680,7537,10797,4294967211,398,4294967102,13744,4294963515,8586,4294966982,892,10,4294966713,4294966713,4294966713
937358835,6462483,6470780,13630,5254,6661,4294967052,4294966944,4294967233,10747,7460,10782,4294967217,423,4294967131,13775,4294963570,8557,4294966837,775,4294967281,4294966726,4294966726,4294966726
937366852,6460462,6471210,13624,5285,6717,4294966947,4294966822,4294967193,10819,7501,10869,4294967199,405,4294967212,13809,4294963619,8434,4294966773,674,67,4294966713,4294966713,4294966713
937372839,6461968,6473778,13698,5333,6816,4294966848,4294966612,4294967197,10787,7527,10981,4294967254,335,4294967242,13911,4294963762,8550,4294966803,615,117,4294966723,4294966723,4294966723
937378860,6463310,6474423,13724,5302,6690,4294966794,4294966384,4294967207,10831,7586,10854,0,226,4294967247,13918,4294963764,8561,4294966851,475,226,4294966710,4294966710,4294966710
937384854,6463765,6475754,13787,5340,6569,4294966735,4294966219,4294967205,10899,7548,10738,4294967239,90,4294967245,13982,4294963650,8717,4294966978,291,337,4294966712,4294966712,4294966712
937390846,6464381,6476484,13949,5354,6291,4294966737,4294966119,4294967223,10833,7606,10805,4294967178,31,4294967289,13957,4294963656,8731,4294967202,240,428,4294966719,4294966719,4294966719
937396842,6465053,6476545,14026,5398,6215,4294966783,4294966112,4294967239,10816,7575,10807,4294967177,93,4294967255,14087,4294963741,8602,80,217,505,4294966722,4294966722,4294966722
937402829,6465019,6476793,14005,5366,6255,4294966852,4294966206,4294967225,10773,7579,10821,4294967238,117,4294967267,14278,4294963531,8667,309,290,581,4294966729,4294966729,4294966729
937408835,6464860,6476801,14025,5292,6249,4294966827,4294966386,4294967206,10727,7529,10867,23,182,4294967275,14260,4294963503,8860,414,344,622,4294966726,4294966726,4294966726
937414840,6465206,6477153,13931,5277,6357,4294966794,4294966554,4294967151,10682,7521,10860,121,188,2,14262,4294963601,8817,421,397,609,4294966724,4294966724,4294966724
937420849,6465531,6477296,13807,5184,6513,4294966737,4294966678,4294967093,10706,7543,10842,107,210,4294967290,14216,4294963403,8734,377,502,586,4294966716,4294966716,4294966716
937426850,6465475,6477357,13787,5071,6378,4294966684,4294966835,4294967054,10715,7483,10940,202,232,4294967289,14283,4294963536,8420,501,709,591,4294966716,4294966716,4294966716
937432852,6465464,6477429,13720,5144,6332,4294966717,4294966818,4294967072,10647,7467,10969,335,332,21,14260,4294963740,8206,408,924,508,4294966716,4294966716,4294966716
937438848,6466166,6477995,13990,5056,6195,4294966809,4294966715,4294967143,10628,7498,10983,351,431,61,14261,4294963762,8227,448,1105,476,4294966718,4294966718,4294966718
937444854,6465585,6477582,14035,5035,6073,4294966903,4294966600,4294967180,10569,7531,10851,378,500,67,14184,4294963892,8319,346,1190,485,4294966712,4294966712,4294966712
937450837,6465443,6477805,14070,4965,5979,4294967113,4294966539,4294967175,10474,7629,10791,370,427,49,14108,4294963818,8560,273,1217,476,4294966726,4294966726,4294966726
937456852,6465884,6477988,14072,5047,5921,0,4294966571,4294967132,10499,7683,10608,293,373,17,14076,4294963928,8525,246,1107,486,4294966713,4294966713,4294966713
937462871,6465847,6477763,14198,4968,5886,4294967278,4294966674,4294967103,10625,7664,10507,329,339,4294967267,14139,4294963688,8719,185,993,449,4294966701,4294966701,4294966701
937468846,6465417,6477885,14254,4836,5841,103,4294966880,4294967110,10579,7585,10600,391,347,4294967224,13998,4294963813,8746,468,854,481,4294966720,4294966720,4294966720
937474855,6465829,6478314,14076,5017,5948,211,4294967083,4294967099,10488,7610,10585,500,253,4294967132,13945,4294964017,8709,385,832,359,4294966710,4294966710,4294966710
937480848,6466343,6478716,13961,5121,6001,160,4294967265,4294967068,10450,7604,10764,431,206,4294967032,14019,4294963816,8765,353,805,296,4294966718,4294966718,4294966718
937486859,6465513,6478113,13935,5153,6079,77,155,4294967092,10353,7509,10835,497,123,4294966990,14011,4294963624,8744,378,814,322,4294966705,4294966705,4294966705
937492845,6465526,6478175,13836,5203,6208,51,238,4294967118,10285,7520,10801,653,133,4294966980,14006,4294963927,8624,244,856,315,4294966720,4294966720,4294966720
937498850,6466592,6479158,13750,5308,6272,4294967250,263,4294967150,10242,7567,10764,715,179,4294966948,13961,4294963617,8670,355,911,313,4294966714,4294966714,4294966714
937504863,6466790,6479668,13812,5318,6353,4294967217,250,4294967189,10300,7527,10654,692,251,4294966927,14049,4294963731,8443,451,944,345,4294966708,4294966708,4294966708
937510851,6466611,6479585,13767,5409,6438,4294967201,142,4294967212,10357,7579,10601,747,371,4294966939,13997,4294963920,8269,94,1075,315,4294966712,4294966712,4294966712
937516842,6467571,6480383,13780,5398,6474,4294967160,4294967274,4294967232,10464,7641,10576,594,424,4294966853,14117,4294963832,8176,4294967176,1141,269,4294966718,4294966718,4294966718
937522859,6467171,6480090,13857,5360,6436,4294967140,4294967104,4294967292,10517,7714,10649,584,519,4294966868,14188,4294963701,8237,4294967058,1287,311,4294966708,4294966708,4294966708
937528837,6466679,6479921,13966,5435,6385,4294967138,4294966944,31,10549,7829,10784,622,590,4294966894,14171,4294963892,8502,4294967279,1214,343,4294966723,4294966723,4294966723
937534872,6467586,6480611,14002,5462,6286,4294967184,4294966804,64,10608,7937,10885,635,597,4294966900,14104,4294963763,8783,4294967270,1036,286,4294966703,4294966703,4294966703
937540847,6467455,6480462,14068,5520,6333,4294967220,4294966679,76,10596,7980,10919,597,552,4294966898,14109,4294963616,8979,373,880,274,4294966719,4294966719,4294966719
937546826,6467172,6480609,14023,5571,6270,4294967213,4294966636,92,10571,7963,10811,571,561,4294966926,14236,4294963707,8919,593,729,223,4294966731,4294966731,4294966731
937552832,6467352,6480591,14029,5552,6263,4294967172,4294966604,120,10676,7918,10657,465,591,4294966903,14194,4294963560,9014,86,676,73,4294966728,4294966728,4294966728
937558855,6467669,6480832,14048,5576,6200,4294967128,4294966562,126,10618,7920,10639,416,681,4294966900,14122,4294963390,9162,914,541,162,4294966709,4294966709,4294966709
937564851,6467273,6480509,14026,5517,6163,4294967085,4294966556,199,10558,7938,10707,210,703,4294966840,14102,4294963765,8975,880,454,8,4294966713,4294966713,4294966713
937570826,6467126,6480525,14114,5470,6085,4294967140,4294966583,223,10586,7927,10602,49,703,4294966766,14066,4294963680,8914,809,460,4294967175,4294966731,4294966731,4294966731
937576846,6467370,6480341,14074,5395,6051,4294967123,4294966627,227,10560,7872,10620,4294967224,746,4294966730,14040,4294963682,8866,817,514,4294967135,4294966715,4294966715,4294966715
937582841,6466877,6480043,14097,5371,6046,4294967156,4294966757,226,10444,7763,10711,4294967262,813,4294966702,14055,4294963613,8735,947,506,4294967051,4294966721,4294966721,4294966721
937588847,6465983,6479501,14115,5320,5955,4294967149,4294966899,253,10467,7927,10759,7,904,4294966695,14039,4294963985,8760,493,617,4294966972,4294966716,4294966716,4294966716
937594847,6466566,6479668,14112,5293,5867,4294967157,4294967049,224,10384,7761,10876,4294967157,956,4294966704,13840,4294963827,8728,298,633,4294966923,4294966717,4294966717,4294966717
937600844,6466239,6479011,14082,5230,5946,4294967133,4294967169,206,10300,7705,11008,4294967294,851,4294966644,13801,4294963942,9015,455,437,4294966834,4294966719,4294966719,4294966719
937606852,6465395,6478340,14038,5150,6009,4294967141,4294967266,185,10386,7731,10937,95,795,4294966638,14127,4294963949,9192,213,306,4294966472,4294966716,4294966716,4294966716
937612842,6465464,6478200,13906,5294,6113,4294967099,41,141,10339,7841,10989,319,802,4294966653,14090,4294963860,9285,4294967103,370,4294966156,4294966720,4294966720,4294966720
937618839,6465699,6477777,13919,5204,6149,4294967095,65,121,10421,7967,10727,191,884,4294966695,14008,4294963412,9269,486,200,4294966354,4294966722,4294966722,4294966722
937624850,6464580,6477074,13855,5211,6275,4294967105,38,77,10434,7838,10719,99,908,4294966674,14031,4294963564,9333,1087,4294967119,4294966508,4294966713,4294966713,4294966713
937630848,6464252,6476903,13837,5224,6362,4294967096,4294967218,81,10444,7846,10634,186,900,4294966718,14186,4294963848,9303,914,4294966835,4294966053,4294966715,4294966715,4294966715
937636845,6464264,6476518,13887,5259,6369,4294967077,4294967069,58,10463,7793,10713,208,903,4294966699,14062,4294963658,9164,982,4294966690,4294966132,4294966723,4294966723,4294966723
937642853,6464786,6476395,13919,5272,6231,4294967102,4294966901,70,10459,7784,10644,249,920,4294966679,13999,4294963671,9079,784,4294966535,4294965797,4294966712,4294966712,4294966712
937648846,6464201,6475937,13918,5239,6317,4294967064,4294966812,93,10540,7836,10563,308,928,4294966703,13808,4294963637,9045,903,4294966573,4294965967,4294966719,4294966719,4294966719
937654856,6464312,6476187,13938,5264,6256,4294967111,4294966712,92,10531,8012,10440,111,984,4294966733,13986,4294963610,9023,834,4294966583,4294965713,4294966713,4294966713,4294966713
937660848,6465000,6476964,14000,5236,6218,4294967139,4294966710,115,10613,7883,10498,4294967231,1047,4294966684,13962,4294963602,9103,754,4294966479,4294965635,4294966718,4294966718,4294966718
937668843,6464300,6475986,14017,5167,6120,4294967191,4294966771,139,10644,7872,10930,97,932,4294966729,13887,4294963672,9065,1054,4294966367,4294965763,4294966719,4294966719,4294966719
937674838,6465721,6477503,14046,5221,6169,4294967247,4294966808,134,10664,7826,11060,194,912,4294966768,13805,4294963683,9027,1031,4294966228,4294965831,4294966722,4294966722,4294966722
937680846,6465191,6477138,14107,5188,6297,4294967280,4294966851,157,10552,7982,11153,349,855,4294966837,13889,4294963814,9288,854,4294965943,4294965593,4294966717,4294966717,4294966717
937686857,6464037,6476228,14114,5226,6226,3,4294966843,184,10536,7961,11126,399,826,4294966912,13824,4294963810,9269,660,4294965758,4294965511,4294966709,4294966709,4294966709
937692842,6464005,6476155,14105,5150,6272,10,4294966852,181,10461,8077,11015,440,821,4294966964,14023,4294963707,8718,504,4294965733,4294965540,4294966720,4294966720,4294966720
937698846,6464572,6476332,14080,5125,6277,4294967293,4294966878,123,10426,8071,10899,98,775,4294966992,13925,4294963743,8446,504,4294965795,4294965681,4294966719,4294966719,4294966719
937704841,6464368,6476457,14057,5020,6338,4294967255,4294966953,51,10473,8010,10910,7,836,4294967015,13930,4294963913,8660,552,4294965776,4294965589,4294966722,4294966722,4294966722
937710832,6464471,6476851,13985,4911,6404,4294967227,4294967014,4294967260,10446,7956,10741,151,853,4294967075,13956,4294963942,8669,871,4294965685,4294965614,4294966723,4294966723,4294966723
937716850,6464902,6476937,13949,4983,6373,4294967209,4294967054,4294967214,10493,7866,10668,132,864,4294967084,13964,4294963871,8672,1230,4294965547,4294965790,4294966716,4294966716,4294966716
937724844,6464416,6476717,13922,5003,6425,4294967172,4294967047,4294967182,10485,7773,10904,4294967271,800,4294967069,14109,4294964071,8826,1485,4294965313,4294965765,4294966720,4294966720,4294966720
937732859,6464908,6477597,13932,4953,6358,4294967137,4294967022,4294967179,10511,7724,11069,460,734,4294967178,14074,4294964253,8797,1508,4294965076,4294965748,4294966710,4294966710,4294966710
937740852,6464981,6476760,13868,5136,6287,4294967068,4294966992,4294967184,10414,7723,11063,495,615,4294967190,13921,4294964311,8583,817,4294964685,4294965487,4294966718,4294966718,4294966718
937748847,6464894,6477302,13873,5202,6366,4294967138,4294966972,4294967279,10446,7847,10992,579,674,4294967205,13997,4294964298,8246,1201,4294964896,4294965841,4294966716,4294966716,4294966716
937756860,6465186,6477495,13872,5299,6510,4294967158,4294966868,100,10411,7953,10973,363,774,4294967197,14669,4294964166,8024,1328,4294964984,4294965950,4294966709,4294966709,4294966709
937762841,6465557,6478141,13912,5250,6505,4294967250,4294966787,174,10343,8079,10902,246,917,4294967236,14278,4294964429,8600,1320,4294964999,4294966204,4294966723,4294966723,4294966723
937768847,6465484,6478004,13967,5285,6389,4294967230,4294966698,250,10450,8002,10814,32,1030,4294967260,13866,4294964569,9097,1260,4294964786,4294966228,4294966714,4294966714,4294966714
937774849,6466276,6478476,14034,5246,6315,3,4294966660,272,10327,8143,10851,192,1125,4294967277,14442,4294964080,8976,1640,4294964713,4294966265,4294966716,4294966716,4294966716
937780845,6465753,6477956,14109,5207,6288,31,4294966685,270,10445,8004,10872,71,1118,4294967218,14112,4294964354,8985,1968,4294964641,4294966008,4294966721,4294966721,4294966721
937786860,6464393,6476994,14164,5136,6222,95,4294966691,261,10422,7997,11030,191,1131,17,13678,4294964504,8858,1800,4294964671,4294966083,4294966712,4294966712,4294966712
937792842,6464479,6477092,14107,5093,6180,131,4294966666,255,10356,7966,11247,240,976,4294967256,14270,4294964151,8274,1895,4294964801,4294966117,4294966721,4294966721,4294966721
937798843,6465783,6477636,14073,4977,6145,129,4294966611,263,10350,7926,11367,53,805,27,14281,4294964355,7918,2050,4294965210,4294966379,4294966718,4294966718,4294966718
937804832,6465962,6478173,14038,5003,6187,130,4294966562,225,10333,7799,11452,153,657,54,13725,4294964465,8166,1477,4294965350,4294966461,4294966728,4294966728,4294966728
937810834,6466411,6478798,13932,5003,6208,130,4294966584,221,10234,7881,11625,288,582,65,13711,4294964731,8351,1273,4294965236,4294966407,4294966727,4294966727,4294966727
937816841,6466556,6478632,13938,5024,6262,27,4294966605,187,10259,7797,11428,271,452,93,14072,4294964925,8168,886,4294964969,4294966397,4294966721,4294966721,4294966721
937822842,6465287,6477408,13886,5044,6340,4294967274,4294966571,136,10170,7737,11192,166,447,132,14669,4294964851,7505,634,4294965136,4294966700,4294966719,4294966719,4294966719
937828844,6464507,6477134,13840,5074,6389,4294967222,4294966456,142,10108,7904,11042,22,426,172,14486,4294965132,7293,667,4294965265,4294966653,4294966719,4294966719,4294966719
937834861,6465048,6477414,13818,5059,6419,4294967178,4294966348,118,10204,8074,10914,4294967206,600,369,14743,4294964719,7377,263,4294965256,4294966755,4294966708,4294966708,4294966708
937840850,6465013,6477216,13790,5032,6356,4294967068,4294966239,117,10068,8215,10859,49,704,406,14553,4294964648,7862,702,4294965230,4294966844,4294966717,4294966717,4294966717
937846858,6464245,6476797,13936,5094,6216,4294967035,4294966120,172,10064,8281,10898,4294967092,867,485,13790,4294964703,8543,1237,4294964751,4294966682,4294966708,4294966708,4294966708
937852839,6464986,6477388,14026,5100,6167,4294967112,4294966008,207,10020,8206,10972,4294966909,786,411,13878,4294964565,8829,1505,4294963901,4294966360,4294966722,4294966722,4294966722
937858854,6465344,6477676,14148,5147,6154,4294967085,4294965942,252,10272,8070,11071,4294966966,711,444,14478,4294964537,8643,2199,4294963578,4294966473,4294966712,4294966712,4294966712
937864839,6465026,6477590,14280,5123,6099,4294967082,4294965909,350,10242,7945,11084,4294967046,598,412,14295,4294964694,8139,2699,4294963873,4294966666,4294966722,4294966722,4294966722
937870844,6464651,6477762,14413,5088,5841,4294967167,4294965944,421,10296,7798,11201,4294967022,483,299,14241,4294964821,7397,2560,4294964153,4294966477,4294966719,4294966719,4294966719
937876848,6465506,6478405,14408,5047,5891,85,4294965983,495,10282,7847,11474,4294966899,432,195,14495,4294964899,6892,1936,4294964737,4294966545,4294966718,4294966718,4294966718
937882851,6465690,6478355,14385,5052,6086,4294966945,4294966102,479,10253,7588,11507,4294966865,243,115,14483,4294964964,6813,1506,4294965494,4294966770,4294966719,4294966719,4294966719
937888846,6466664,6479771,14542,5009,5919,4294967108,4294966214,505,10228,7564,11410,4294967107,127,79,14013,4294965024,7343,1034,4294965641,4294966819,4294966721,4294966721,4294966721
937894849,6468552,6481243,14443,4947,5897,4294967243,4294966396,518,10256,7730,11306,4294967049,106,25,14235,4294965045,7732,649,4294965635,4294966859,4294966715,4294966715,4294966715
937900844,6467032,6479586,14327,4973,6040,4294967237,4294966566,479,10276,8005,11300,4294966913,104,23,14133,4294965216,7826,333,4294965599,4294966942,4294966720,4294966720,4294966720
937906831,6464732,6477682,14200,4913,6129,4294967140,4294966700,402,10326,7785,11250,4294966806,75,45,12537,4294965289,8084,4294967261,4294965239,4294967082,4294966729,4294966729,4294966729
937912839,6464637,6476979,14184,4894,6328,4294966983,4294966771,383,10275,7782,11212,4294966608,186,61,14049,4294965070,7404,4294967184,4294964442,4294966915,4294966721,4294966721,4294966721
937918864,6465248,6477264,14109,4862,6246,4294966951,4294966763,300,10291,7689,11229,4294966356,267,195,15255,4294964813,7083,144,4294964339,4294966844,4294966706,4294966706,4294966706
937924851,6464519,6476771,14095,4766,6373,4294966915,4294966627,281,10034,7737,11301,4294966723,265,255,15079,4294964930,7483,624,4294965125,4294967233,4294966713,4294966713,4294966713
937930851,6464907,6477284,14054,4733,6331,4294966982,4294966435,263,9901,7969,11137,4294966270,253,303,14757,4294965153,8163,1198,4294964961,4294967082,4294966713,4294966713,4294966713
937936843,6465245,6477287,14059,4764,6267,4294966975,4294966137,248,9930,7723,10832,4294966338,305,252,14397,4294965074,8291,1722,4294964511,4294967025,4294966723,4294966723,4294966723
937942853,6465286,6477336,14129,4752,6176,4294966963,4294965908,300,10046,7830,10732,4294966149,449,235,14400,4294964995,8042,1846,4294964284,4294967094,4294966711,4294966711,4294966711
937948848,6464549,6476725,14035,4737,6147,4294967046,4294965763,364,10099,7709,10673,4294966081,575,260,14698,4294964900,7430,2184,4294964396,4294967159,4294966714,4294966714,4294966714
937954859,6464776,6476661,14078,4838,6022,4294967157,4294965649,422,10108,7596,10859,4294966007,593,304,14789,4294964893,7043,2611,4294964960,120,4294966709,4294966709,4294966709
937960862,6465562,6477083,14151,4843,5946,4294967227,4294965672,477,10044,7582,10797,4294965993,633,180,15101,4294964950,6607,2700,4294965419,217,4294966710,4294966710,4294966710
937966845,6465133,6477098,14136,4889,5709,70,4294965745,551,10111,7539,11020,4294966152,652,181,15055,4294965073,6468,2255,4294965452,49,4294966721,4294966721,4294966721
937972853,6466151,6477912,14219,4939,5671,117,4294965880,585,10096,7533,11228,4294966334,625,164,15331,4294964987,6646,1693,4294965793,150,4294966717,4294966717,4294966717
937978837,6465937,6478037,14176,4946,5659,146,4294966102,627,9984,7582,11340,4294966588,500,153,15108,4294965039,7055,1508,4294965908,138,4294966724,4294966724,4294966724
937984838,6464805,6477602,14119,4936,5664,164,4294966361,628,10034,7743,11173,4294966509,385,149,14808,4294965029,7567,1403,4294965602,219,4294966725,4294966725,4294966725
937990850,6465671,6478498,14054,4976,5717,152,4294966551,594,10154,7492,10972,4294966602,381,180,14548,4294964829,8083,1664,4294965069,259,4294966715,4294966715,4294966715
937996841,6468574,6480277,14009,4949,5914,52,4294966696,519,10135,7556,11041,4294966619,295,143,14619,4294964696,8525,2267,4294964644,309,4294966721,4294966721,4294966721
938002874,6470218,6482525,13966,4976,6040,4294967268,4294966725,462,10098,7674,11001,4294966528,148,132,14302,4294964723,8865,3119,4294964171,83,4294966700,4294966700,4294966700
938008841,6471479,6485937,13996,4941,5982,4294967123,4294966627,444,10186,7533,10962,4294966311,4,107,14430,4294964729,8899,3983,4294963961,51,4294966724,4294966724,4294966724
938014849,6470264,6484744,14120,4952,6013,4294967066,4294966482,390,10144,7429,11035,4294966329,4294967243,123,14333,4294964773,8332,4574,4294963956,33,4294966717,4294966717,4294966717
938020836,6466896,6477977,14129,4978,6022,4294967031,4294966324,336,10160,7430,11159,4294966326,4294967236,203,14162,4294964829,7604,4940,4294964311,154,4294966726,4294966726,4294966726
938026851,6462946,6472436,14193,4919,5881,4294966979,4294966134,304,10183,7426,11214,4294966402,4294967179,191,14608,4294964976,6900,4803,4294964563,95,4294966712,4294966712,4294966712
938032852,6461820,6473826,14243,4993,5819,4294967030,4294966045,317,10154,7569,11325,4294966473,4294967218,174,15226,4294965021,6285,4463,4294965272,260,4294966714,4294966714,4294966714
938038842,6463507,6476154,14358,5068,5629,4294967088,4294966020,347,10287,7493,11295,4294966495,4294967277,215,15254,4294965186,6349,4110,4294966024,263,4294966722,4294966722,4294966722
938044843,6464601,6476873,14418,5139,5595,4294967201,4294966061,412,10411,7547,11056,4294966520,4294967295,156,14714,4294965156,6980,3528,4294966311,188,4294966719,4294966719,4294966719
938050848,6464758,6477276,14506,5262,5433,4294967229,4294966143,458,10401,7477,11051,4294966371,4294967270,87,14526,4294965146,7323,3126,4294966143,332,4294966718,4294966718,4294966718
938056849,6465662,6477636,14662,5298,5283,23,4294966291,502,10564,7484,11217,4294966153,4294967265,4294967235,15053,4294965412,7105,2910,4294966272,473,4294966717,4294966717,4294966717
938062862,6465475,6477606,14732,5337,5218,84,4294966434,498,10635,7269,11180,4294966505,94,4294967285,14976,4294965431,7194,2689,4294966775,661,4294966711,4294966711,4294966711
938068841,6465440,6477988,14713,5320,5496,126,4294966521,453,10569,7246,11060,4294966770,183,4294967231,14778,4294965495,7210,2411,12,912,4294966723,4294966723,4294966723
938074861,6466243,6478558,14546,5155,5744,56,4294966516,322,10593,7020,10980,4294966893,241,4294967195,14856,4294965337,7462,2275,423,1281,4294966707,4294966707,4294966707
938080854,6466431,6478518,14337,5036,5919,4294967265,4294966464,130,10533,7010,11038,4294967242,369,4294967199,14915,4294965495,7438,1968,802,1544,4294966714,4294966714,4294966714
938086840,6466558,6478942,14121,4866,6056,4294967168,4294966413,4294967219,10453,7062,11196,4294967219,533,4294967146,14910,4294965317,7116,1714,1299,2022,4294966724,4294966724,4294966724
938092848,6466513,6478814,13935,4865,6196,4294967088,4294966333,4294967054,10414,6976,11415,4294967289,707,4294967101,14889,4294965139,7084,1658,1924,2456,4294966718,4294966718,4294966718
938098839,6467191,6479043,13911,4903,5993,4294967037,4294966206,4294966934,10262,7014,11408,4294967291,865,4294967079,14870,4294965207,7097,1874,2359,2504,4294966725,4294966725,4294966725
938104841,6467107,6478921,14063,4905,5781,4294967110,4294966124,4294966944,10154,6948,11349,4294967206,1042,4294967056,14589,4294965223,7038,1773,2773,2592,4294966721,4294966721,4294966721
938110835,6466609,6478652,14120,4934,5492,4294967227,4294966047,4294966965,10044,7019,11072,4294967222,1100,4294967053,14109,4294965376,6755,1323,2813,2700,4294966725,4294966725,4294966725
938116854,6467196,6479360,14252,4948,5245,56,4294966024,4294966991,9967,7257,10933,4294967105,1016,4294967035,14441,4294965068,6016,490,2641,2713,4294966712,4294966712,4294966712
938122854,6466761,6479114,14304,4967,5112,202,4294966059,4294967016,9805,7244,10871,4294966979,888,4294966983,14244,4294965479,5705,683,2799,3024,4294966714,4294966714,4294966714
938128837,6466374,6479557,14264,4985,5077,297,4294966149,4294967008,9721,7514,10899,4294967121,838,4294967015,13600,4294965821,5721,4294966388,2358,2362,4294966723,4294966723,4294966723
938134844,6466467,6479191,14282,5034,4951,294,4294966303,4294966950,9594,7450,10798,4294967239,708,4294967014,14528,4294965090,5915,4294966514,2240,2511,4294966722,4294966722,4294966722
938140853,6466153,6478690,14176,5088,5120,275,4294966521,4294966870,9539,7650,10745,4294967227,597,4294966865,14051,4294964991,6766,789,2571,3506,4294966715,4294966715,4294966715
938146845,6465505,6478489,14133,5166,5121,212,4294966684,4294966822,9574,7698,10727,4294967122,411,4294966824,13227,4294966125,7664,586,1779,2648,4294966718,4294966718,4294966718
938152853,6466317,6479434,14103,5145,5303,63,4294966864,4294966792,9702,7757,10804,4294967170,254,4294966852,13699,4294966193,8230,4294966399,1006,1635,4294966717,4294966717,4294966717
938158840,6466599,6479269,14082,5199,5479,4294967252,4294967003,4294966751,9635,7883,10872,16,286,4294966831,13950,4294965765,8257,4294966701,830,1368,4294966721,4294966721,4294966721
938164847,6466684,6479527,14037,5208,5537,4294967163,4294967120,4294966765,9796,7899,10878,32,4294967288,4294966760,13882,4294965377,8070,4294966566,602,989,4294966718,4294966718,4294966718
938170836,6466843,6479712,13973,5243,5756,4294967069,4294967174,4294966809,9835,7705,11015,18,4294967273,4294966809,14249,4294964543,7957,600,915,1841,4294966724,4294966724,4294966724
938176853,6466562,6479271,13935,5195,5849,4294966935,4294967096,4294966822,9928,7734,10959,77,4294966912,4294966907,14688,4294963844,7013,2017,998,2459,4294966711,4294966711,4294966711
938182863,6467636,6480522,13959,5167,5986,4294966845,4294966891,4294966823,10195,7677,10961,4294967084,4294966603,4294966951,13647,4294965677,7191,2616,1256,2507,4294966710,4294966710,4294966710
938190848,6466175,6479082,14200,5052,6129,4294966608,4294966647,4294966816,10433,7432,11077,4294967185,4294966657,4294967182,14668,4294964920,6511,4294967218,751,920,4294966715,4294966715,4294966715
938198839,6467931,6480854,14414,4867,6091,4294966476,4294966390,4294966801,10642,7279,11131,41,4294966659,7,14756,4294964928,6186,565,1091,1067,4294966722,4294966722,4294966722
938204834,6468009,6481471,14549,4750,6079,4294966442,4294966283,4294966750,10721,7286,11190,8,4294966554,93,14715,4294965174,6254,4294967016,1137,967,4294966727,4294966727,4294966727
938210844,6467380,6480485,14619,4660,5976,4294966528,4294966189,4294966667,10932,7223,11212,4294967279,4294966581,242,15336,4294964664,6390,4294966792,1183,1157,4294966717,4294966717,4294966717
938218835,6467855,6480739,14675,4641,5932,4294966704,4294966254,4294966612,10959,7342,11291,4294967241,4294966652,409,15997,4294963040,6634,759,1497,2300,4294966727,4294966727,4294966727
938224852,6466619,6479425,14639,4623,5787,4294966818,4294966374,4294966584,10864,7582,11389,4294967170,4294966708,471,15161,4294964700,7111,3183,2213,3881,4294966713,4294966713,4294966713
938230834,6466787,6479251,14604,4586,5733,4294966898,4294966561,4294966527,10893,7614,11279,4294967121,4294966793,581,15207,4294965862,7262,1687,2263,2978,4294966726,4294966726,4294966726
938236833,6467418,6479743,14551,4523,5684,4294967026,4294966736,4294966519,10929,7467,11260,4294967194,4294967115,742,16067,4294964885,7173,191,2069,2364,4294966728,4294966728,4294966728
938242836,6467258,6479603,14502,4533,5692,4294967260,4294966891,4294966539,10809,7521,11401,150,166,856,15824,4294964763,7429,743,2554,3108,4294966724,4294966724,4294966724
938248843,6467166,6480090,14478,4527,5784,74,4294966937,4294966530,10622,7615,11438,227,454,936,15539,4294964888,7884,557,2854,2774,4294966723,4294966723,4294966723
938254861,6468282,6480712,14526,4435,5705,8,4294966914,4294966491,10417,7715,11361,299,730,1002,16004,4294964219,7902,1086,2829,2847,4294966706,4294966706,4294966706
938260860,6467014,6478793,14524,4484,5691,165,4294966914,4294966504,10306,7780,11136,334,945,983,15512,4294964699,7981,1559,3057,2940,4294966710,4294966710,4294966710
938266853,6466794,6478941,14494,4520,5662,186,4294966827,4294966486,10272,7769,10987,460,1147,1041,15556,4294964579,7727,1301,3313,2619,4294966714,4294966714,4294966714
938272829,6466616,6478560,14497,4572,5600,183,4294966799,4294966507,10191,7774,10980,422,1208,981,14886,4294965046,7712,455,3409,2189,4294966728,4294966728,4294966728
938278847,6466770,6478240,14489,4628,5639,244,4294966750,4294966558,10143,7715,11037,414,1181,906,15017,4294964117,7272,369,3727,2553,4294966720,4294966720,4294966720
938284848,6466013,6477596,14485,4743,5587,369,4294966771,4294966655,10164,7665,11118,521,1106,877,14417,4294964918,7432,241,3903,2270,4294966715,4294966715,4294966715
938290851,6465860,6477293,14506,4919,5566,480,4294966840,4294966779,10145,7547,11228,615,978,780,14796,4294964638,7103,4294966986,3799,1639,4294966718,4294966718,4294966718
938296844,6466414,6477493,14415,5139,5410,545,4294966932,4294966848,10133,7536,11318,726,851,705,14591,4294964763,6957,4294966747,3848,1628,4294966717,4294966717,4294966717
938302841,6465671,6476505,14374,5256,5344,517,4294966989,4294966922,10102,7502,11347,855,711,712,14830,4294964329,7033,4294966152,3684,1371,4294966721,4294966721,4294966721
938308866,6465058,6475647,14377,5385,5293,571,4294967094,4294966988,10101,7508,11292,884,637,668,14757,4294964654,7333,4294966207,3432,1089,4294966704,4294966704,4294966704
938314853,6465525,6475931,14302,5503,5351,615,4294967275,4294967077,10298,7431,11132,952,598,630,15162,4294964170,7337,4294966082,3226,1001,4294966715,4294966715,4294966715
938320851,6466110,6476494,14226,5530,5292,619,121,4294967158,10269,7555,11075,1041,569,617,14801,4294965035,7394,169,3531,1855,4294966713,4294966713,4294966713
938326847,6465573,6476316,14251,5587,5249,637,290,4294967195,10305,7445,11339,864,462,517,14992,4294965323,7359,4294966276,3343,763,4294966718,4294966718,4294966718
938332845,6465370,6476224,14280,5654,5222,585,423,4294967265,10404,7387,11558,1035,356,501,14996,4294964894,7262,4294966316,3302,656,4294966718,4294966718,4294966718
938338859,6465666,6475796,14271,5722,5166,597,488,12,10318,7411,11450,1257,355,535,15017,4294964672,7652,4294966535,3413,739,4294966711,4294966711,4294966711
938344845,6465178,6475385,14300,5721,5167,559,469,97,10274,7727,11322,1193,290,490,14790,4294964823,7963,4294966565,3294,557,4294966720,4294966720,4294966720
938350854,6465135,6475707,14309,5612,5278,559,408,149,10354,7633,11182,959,248,354,14655,4294964765,8167,4294966345,3144,490,4294966712,4294966712,4294966712
938356866,6465419,6475829,14347,5541,5292,509,313,184,10223,7651,11056,1045,336,404,14579,4294964588,8248,4294966115,3126,379,4294966706,4294966706,4294966706
938362837,6465004,6475376,14242,5428,5349,508,208,156,10282,7727,11124,741,339,325,14491,4294964495,8163,4294966130,3199,423,4294966725,4294966725,4294966725
938368842,6464694,6475413,14225,5291,5360,514,62,155,10123,7746,10973,570,245,343,14603,4294964345,8115,4294966057,3424,547,4294966722,4294966722,4294966722
938374847,6465481,6476007,14213,5182,5376,472,4294967211,122,10220,7655,10941,534,237,312,14351,4294964316,8062,4294965673,3471,266,4294966720,4294966720,4294966720
938380856,6465505,6475903,14152,5040,5384,475,4294967076,104,10152,7569,10991,598,188,342,14096,4294964304,8081,4294965649,3626,205,4294966713,4294966713,4294966713
938386860,6464678,6475558,14183,5031,5506,431,4294966927,6,10046,7581,11131,451,64,349,14171,4294964203,7903,4294965525,3597,75,4294966712,4294966712,4294966712
938392840,6464929,6476086,14213,4997,5330,320,4294966741,4294967214,10001,7536,11105,287,12,244,13986,4294964169,7943,4294965590,3546,136,4294966720,4294966720,4294966720
938398841,6465373,6476097,14233,4930,5301,180,4294966646,4294967140,10166,7379,10898,406,51,302,14165,4294964200,7748,4294965510,3477,97,4294966721,4294966721,4294966721
938404851,6464911,6475805,14237,5129,5148,170,4294966588,4294967137,10066,7434,10968,573,129,300,14120,4294964260,7696,4294965656,3504,175,4294966716,4294966716,4294966716
938410854,6464557,6475579,14215,5329,5144,155,4294966675,4294967183,10143,7451,11124,323,16,209,14232,4294964239,7630,4294965574,3441,222,4294966710,4294966710,4294966710
938416844,6465127,6476114,14312,5400,5096,215,4294966817,4294967249,10197,7459,11062,697,75,231,14451,4294964218,7765,4294965562,3417,332,4294966723,4294966723,4294966723
938422849,6465500,6476552,14396,5528,5192,281,4294967022,4294967295,10024,7686,11287,651,212,185,14515,4294964265,7849,4294965651,3376,440,4294966714,4294966714,4294966714
938428850,6464444,6475588,14546,5588,5177,300,4294967201,44,10062,7759,11232,303,238,4294967278,14622,4294964150,7952,4294965692,3303,486,4294966718,4294966718,4294966718
938434847,6464930,6475844,14568,5695,5184,429,65,84,10378,7475,11081,410,392,4294967262,14758,4294964193,7894,4294965910,3325,595,4294966720,4294966720,4294966720
938440845,6465386,6476317,14684,5702,5213,451,213,89,10637,7513,10975,745,600,61,14800,4294964430,7901,4294966091,3308,628,4294966719,4294966719,4294966719
938446854,6464605,6475623,14620,5574,5315,456,363,69,10082,7877,11085,841,706,95,14879,4294964418,8035,4294965900,3287,599,4294966712,4294966712,4294966712
938452842,6464790,6475683,14633,5509,5312,365,452,34,10197,7975,11101,359,620,4294967074,14814,4294964304,8239,4294965964,3192,579,4294966721,4294966721,4294966721
938458837,6465549,6475975,14669,5354,5372,321,541,4294967265,10117,8019,11032,205,717,4294967154,14837,4294964467,8236,4294965962,3118,536,4294966726,4294966726,4294966726
938464841,6465498,6476228,14692,5199,5352,300,633,4294967215,9958,8109,11134,4294967264,657,4294966998,14618,4294964360,8555,4294965970,3040,507,4294966721,4294966721,4294966721
938470853,6465124,6476306,14625,5117,5410,319,679,4294967157,10172,8013,10984,4294967020,645,4294966871,14436,4294964324,8868,4294966142,2924,429,4294966715,4294966715,4294966715
938476848,6465455,6476203,14570,5049,5373,277,717,4294967132,9982,8008,11049,4294966970,743,4294966884,14094,4294964100,9051,4294966256,2851,317,4294966717,4294966717,4294966717
938482830,6465655,6476532,14432,4997,5421,260,717,4294967145,10196,7931,10878,4294966751,707,4294966771,13852,4294963836,9027,4294966397,2836,224,4294966730,4294966730,4294966730
938488841,6465074,6476522,14403,4994,5448,232,598,4294967155,10949,7487,10625,4294966770,1243,4294966894,13669,4294963980,9313,4294966488,2757,44,4294966721,4294966721,4294966721
938494842,6465761,6477088,14326,4990,5556,179,451,4294967165,9641,7985,11142,4294966808,832,4294966880,13410,4294963254,9307,4294966160,2919,4294967134,4294966723,4294966723,4294966723
938500841,6466113,6477230,14220,5041,5593,122,299,4294967194,9943,7638,11048,4294966335,596,4294966612,13326,4294963177,9175,4294966415,2564,4294967050,4294966721,4294966721,4294966721
938506859,6465345,6476607,14153,5109,5571,59,133,4294967211,10276,7454,10972,4294966397,505,4294966667,13413,4294963219,9065,4294966477,2239,4294967016,4294966711,4294966711,4294966711
938512837,6465391,6476643,14169,5175,5618,4294967261,4294967270,4294967228,10338,7307,11133,4294966515,544,4294966782,13428,4294963170,9047,4294966356,2039,4294966941,4294966723,4294966723,4294966723
938520851,6465704,6476656,14176,5141,5622,4294967197,4294967174,4294967191,10604,7155,11140,4294966504,289,4294966674,13448,4294963143,9050,4294966081,1853,4294966960,4294966714,4294966714,4294966714
938528852,6465134,6476493,14126,5186,5619,4294967125,4294967228,4294967166,10726,7106,11137,4294966778,288,4294966793,13457,4294963272,9127,4294965984,1686,4294966966,4294966716,4294966716,4294966716
938536843,6465691,6476247,14204,5188,5655,4294967050,77,4294967089,10717,7104,11273,4294966964,239,4294966860,13500,4294963252,9192,4294966093,1594,4294967019,4294966723,4294966723,4294966723
938542838,6466448,6477671,14183,5180,5608,4294966992,167,4294967027,10813,7091,11416,4294966952,205,4294966956,13553,4294963382,9234,4294966268,1566,4294967034,4294966720,4294966720,4294966720
938550855,6465371,6476627,14276,5089,5750,4294966819,272,4294966930,10859,7085,11762,4294967135,216,4294967124,13559,4294963480,9390,4294966432,1386,4294967167,4294966710,4294966710,4294966710
938558845,6465657,6476664,14473,4825,5568,4294966830,344,4294966870,10685,7243,11808,4294967212,182,19,13561,4294963525,9448,4294966423,1145,4294967267,4294966717,4294966717,4294966717
938564843,6466335,6477919,14394,4893,5552,4294966919,320,4294966806,10589,7262,11828,4294967171,82,72,13628,4294963651,9485,4294966572,957,103,4294966722,4294966722,4294966722
938570862,6465294,6476523,14400,4840,5632,4294967017,379,4294966795,10645,7242,11731,4294967172,44,142,13659,4294963793,9319,4294966542,793,234,4294966707,4294966707,4294966707
938576853,6465696,6476660,14434,4745,5588,4294967031,487,4294966763,10661,7249,11787,4294967121,4,212,13649,4294963877,9235,4294966426,758,301,4294966711,4294966711,4294966711
938582840,6465171,6475773,14404,4800,5557,4294967172,539,4294966727,10729,7255,11703,4294967213,97,333,13724,4294963976,9176,4294966306,709,355,4294966722,4294966722,4294966722
938588841,6464365,6475457,14274,4796,5718,4294967289,563,4294966743,10281,7332,11730,44,121,473,13725,4294964097,9032,4294966155,688,395,4294966723,4294966723,4294966723
938594835,6465156,6476103,14171,4901,5825,24,479,4294966780,10121,7252,11653,4294967213,55,336,13755,4294964088,8958,4294966128,641,452,4294966727,4294966727,4294966727
938600847,6465303,6476072,14125,4963,5846,4294967279,377,4294966912,10040,7338,11651,4294967109,123,231,13813,4294964124,8995,4294965942,652,440,4294966718,4294966718,4294966718
938606847,6464443,6475660,14066,5119,5888,4294967284,155,4294966964,9942,7367,11460,4294967035,203,207,13778,4294964076,9022,4294965909,557,469,4294966718,4294966718,4294966718
938612844,6464779,6475823,14035,5202,5790,4294967224,4294967233,4294967083,9739,7425,11408,4294966906,232,54,13780,4294964018,8984,4294965710,481,414,4294966720,4294966720,4294966720
938618841,6464601,6475597,14052,5352,5697,4294967261,4294967073,4294967254,9759,7329,11476,4294966682,228,4294967247,13768,4294964023,9163,4294965890,383,411,4294966718,4294966718,4294966718
938624850,6463961,6475578,14221,5514,5490,26,4294966987,65,9927,7365,11417,4294966657,459,4294967224,13742,4294964027,9214,4294965765,343,296,4294966718,4294966718,4294966718
938630842,6464770,6476523,14111,5583,5464,161,4294966939,179,9763,7444,11371,4294966703,502,4294967163,13693,4294964000,9298,4294965936,333,196,4294966722,4294966722,4294966722
938636840,6466376,6478196,14116,5563,5380,203,4294966947,237,9757,7445,11404,4294966767,511,4294967094,13660,4294964016,9373,4294966105,370,120,4294966722,4294966722,4294966722
938642835,6467152,6478990,14176,5626,5480,327,4294967021,338,9674,7520,11435,4294966864,393,4294966928,13602,4294963941,9317,4294966153,415,64,4294966722,4294966722,4294966722
938648846,6468665,6482050,14225,5646,5489,315,4294967189,377,9805,7452,11321,4294966852,309,4294966799,13534,4294963835,9361,4294966047,476,9,4294966716,4294966716,4294966716
938654834,6469217,6484925,14248,5670,5528,300,4294967289,351,9846,7446,11362,4294966892,282,4294966712,13559,4294963831,9381,4294965967,558,4294967216,4294966728,4294966728,4294966728
938660847,6466246,6479041,14336,5584,5516,211,131,322,9810,7341,11299,4294966925,253,4294966697,13353,4294963602,9366,4294965838,656,4294967098,4294966718,4294966718,4294966718
938666857,6462474,6471328,14270,5505,5591,117,228,259,9845,7297,11382,4294967002,240,4294966707,13309,4294963659,9317,4294965924,715,4294967103,4294966712,4294966712,4294966712
938672860,6461299,6471430,14337,5441,5651,97,238,229,9834,7239,11322,4294966936,108,4294966615,13222,4294963555,9247,4294965727,863,4294966957,4294966709,4294966709,4294966709
938678831,6461658,6473449,14393,5388,5596,48,252,214,10064,7152,11418,4294967001,123,4294966688,13148,4294963564,9018,4294965704,978,4294966984,4294966729,4294966729,4294966729
938684856,6462337,6473761,14403,5314,5635,21,231,186,10035,7121,11325,4294966950,4294967279,4294966613,13203,4294963551,8882,4294965655,1121,4294967083,4294966711,4294966711,4294966711
938690853,6462942,6474643,14421,5240,5653,4294967218,209,153,10126,7169,11124,4294966944,4294967195,4294966637,13195,4294963546,8978,4294965633,1211,4294967185,4294966715,4294966715,4294966715
938698844,6464621,6476074,14529,5115,5592,4294967099,193,70,10179,7238,11411,4294966987,4294967061,4294966646,13300,4294963492,8926,4294965638,1125,4294967217,4294966719,4294966719,4294966719
938704835,6465594,6477626,14563,5082,5518,4294967025,189,21,10239,7320,11490,4294966979,4294967050,4294966681,13364,4294963560,8931,4294965738,1068,4294967274,4294966725,4294966725,4294966725
938710839,6465177,6476883,14487,5078,5589,4294966996,207,4294967289,10318,7347,11525,4294967087,4294967090,4294966743,13431,4294963643,8965,4294965807,902,51,4294966721,4294966721,4294966721
938716832,6465889,6477236,14299,5028,5709,4294966973,205,4294967280,10365,7321,11482,4294967254,4294967140,4294966821,13462,4294963607,9221,4294965766,685,169,4294966726,4294966726,4294966726
938722844,6465945,6477288,14129,5009,5882,4294966945,254,4294967235,10405,7363,11385,103,4294967162,4294966888,13546,4294963423,9268,4294965774,348,225,4294966722,4294966722,4294966722
938728836,6465935,6477607,13995,4982,5944,4294966913,207,4294967195,10501,7359,11429,105,4294967193,4294966953,13576,4294963358,9170,4294965955,25,231,4294966725,4294966725,4294966725
938734833,6466536,6478104,13880,5068,6017,4294966907,154,4294967187,10476,7353,11519,65,4294967245,4294967071,13577,4294963359,9017,4294966162,4294967121,210,4294966727,4294966727,4294966727
938740844,6466337,6477666,13901,5084,5869,4294966938,48,4294967209,10492,7251,11646,17,47,4294967141,13619,4294963386,8750,4294966397,4294967008,244,4294966717,4294966717,4294966717
938746862,6465550,6477180,14088,5064,5755,4294966949,4294967231,4294967254,10382,7123,11685,4294967185,129,4294967192,13524,4294963354,9006,4294966507,4294967080,168,4294966707,4294966707,4294966707
938754838,6465731,6477365,14161,5038,5592,4294967022,4294967085,4294967256,10382,7081,11497,4294966992,4294967282,4294967139,13423,4294963257,9345,4294966351,4294967126,126,4294966725,4294966725,4294966725
938762855,6465418,6477036,14240,5121,5379,4294967036,4294967056,4294967211,10458,7080,11276,4294966864,4294967107,4294967132,13258,4294963310,9134,4294965562,193,4294966517,4294966712,4294966712,4294966712
938770835,6465534,6477807,14234,4982,5375,4294966951,4294966907,4294967173,10463,7236,11106,4294966628,4294966881,4294967058,13289,4294963269,9133,4294966363,431,34,4294966725,4294966725,4294966725
938778847,6466030,6477463,14534,4860,5524,4294967034,4294967291,4294967118,10349,7307,11091,4294966678,4294966927,4294966967,13447,4294963327,9068,4294966375,495,159,4294966718,4294966718,4294966718
938786846,6465363,6477102,14292,4996,5546,4294966996,152,4294967126,10257,7350,11266,4294966672,4294966878,4294966908,13599,4294963358,9163,4294966351,763,266,4294966718,4294966718,4294966718
938792831,6466381,6478843,14251,5039,5569,4294966984,79,4294967092,10159,7309,11286,4294966664,4294966733,4294966846,13724,4294963453,9271,4294966402,899,233,4294966729,4294966729,4294966729
938798836,6466821,6478650,14239,5022,5586,4294966988,68,4294967062,10142,7333,11425,4294966813,4294966694,4294966843,13727,4294963235,9317,4294966343,902,130,4294966726,4294966726,4294966726
938804846,6466649,6478877,14228,4965,5638,4294967061,184,4294967045,10200,7361,11451,4294966961,4294966718,4294966854,13761,4294963179,9409,4294966554,813,201,4294966715,4294966715,4294966715
938812841,6466478,6478727,14217,5054,5617,4294967164,331,4294967092,10164,7277,11382,4294967198,4294966787,4294966866,13774,4294963241,9398,4294966661,689,154,4294966723,4294966723,4294966723
938818858,6467653,6480214,14217,5084,5714,4294967169,396,4294967076,10180,7310,11246,23,4294966857,4294966879,13814,4294963185,9315,4294966751,691,160,4294966713,4294966713,4294966713
938824842,6466963,6479600,14212,5162,5779,4294967214,388,4294967089,10227,7240,11258,90,4294966969,4294966900,13772,4294963146,9097,4294966825,682,152,4294966720,4294966720,4294966720
938830848,6466830,6479418,14269,5221,5830,4294967200,343,4294967095,10393,7225,11238,159,4294967053,4294966914,13666,4294963164,9039,4294966885,716,147,4294966715,4294966715,4294966715
938836852,6467787,6480002,14177,5291,5875,4294967145,311,4294967087,10421,7211,11260,162,4294967122,4294966932,13705,4294963210,9105,4294966959,778,131,4294966713,4294966713,4294966713
938842853,6467812,6480110,14203,5263,5930,4294967188,288,4294967067,10495,7205,11284,161,4294967195,4294966976,13637,4294963161,9119,4294966974,825,108,4294966715,4294966715,4294966715
938848859,6467136,6479913,14134,5303,5909,4294967180,221,4294967026,10507,7213,11259,159,4294967241,4294967029,13470,4294963047,9254,4294966935,818,83,4294966714,4294966714,4294966714
938854847,6467454,6480226,14160,5363,5918,4294967217,172,4294967015,10602,7253,11348,119,4294967235,4294967082,13410,4294963052,9377,4294967211,686,142,4294966716,4294966716,4294966716
938860858,6467808,6480377,14187,5360,5884,4294967214,76,4294967018,10546,7265,11260,47,4294967259,4294967116,13323,4294963095,9333,14,603,96,4294966712,4294966712,4294966712
938866833,6466901,6479897,14182,5277,5820,4294967213,4294967250,4294967004,10545,7258,11253,4294967230,4294967245,4294967129,13329,4294963145,9317,114,515,89,4294966728,4294966728,4294966728
938872857,6467224,6480215,14160,5207,5759,4294967176,4294967173,4294967023,10497,7260,11219,4294967088,4294967251,4294967176,13265,4294963217,9349,120,449,99,4294966711,4294966711,4294966711
938878839,6467652,6480416,14155,5174,5790,4294967176,4294967149,4294967023,10477,7243,11210,4294966980,4294967266,4294967199,13219,4294963183,9220,114,385,113,4294966720,4294966720,4294966720
938884846,6467249,6480129,14092,5111,5764,4294967188,4294967123,4294966968,10473,7266,11143,4294966913,4294967246,4294967223,13234,4294963181,9261,92,317,134,4294966715,4294966715,4294966715
938890851,6466752,6479862,14143,5058,5765,4294967261,4294967153,4294966955,10470,7255,11232,4294966923,4294967248,4294967272,13261,4294963323,9180,35,292,106,4294966717,4294966717,4294966717
938896861,6466674,6479154,14108,5061,5698,4294967208,4294967110,4294966946,10371,7287,11266,4294966939,4294967244,10,13171,4294963130,9043,4294967063,306,67,4294966707,4294966707,4294966707
938902836,6466196,6478405,14033,5039,5770,4294967149,4294967049,4294966922,10417,7248,11260,4294966943,4294967187,25,13216,4294963210,9058,4294967100,313,294,4294966726,4294966726,4294966726
938908850,6465169,6477445,14061,5027,5855,4294967100,4294967080,4294966897,10381,7228,11361,4294967086,4294967151,71,13236,4294963276,8977,4294967020,326,343,4294966718,4294966718,4294966718
938914847,6465448,6477534,14139,5020,5730,4294967177,4294967084,4294966913,10370,7147,11391,4294967196,4294967114,108,13284,4294963311,8870,4294966979,394,426,4294966718,4294966718,4294966718
938920844,6465455,6477173,14071,5110,5770,4294967188,4294967138,4294966915,10382,7181,11346,13,4294967080,148,13301,4294963280,8916,4294966948,495,483,4294966720,4294966720,4294966720
938926836,6464840,6476750,14051,5094,5864,4294967143,4294967179,4294966885,10319,7126,11280,101,4294967063,176,13413,4294963352,9011,4294966942,594,512,4294966725,4294966725,4294966725
938932861,6464968,6476948,14062,5108,5832,4294967162,4294967217,4294966871,10349,7127,11273,184,4294967113,193,13481,4294963301,9098,4294966926,703,582,4294966711,4294966711,4294966711
938938862,6465398,6477086,14057,5047,5880,4294967257,4294967276,4294966878,10337,7088,11343,232,4294967189,192,13537,4294963358,9184,4294966951,726,575,4294966709,4294966709,4294966709
938944860,6464619,6476376,14043,5138,5857,69,4294967279,4294966875,10298,7241,11334,274,4294967257,184,13600,4294963290,9377,4294966980,726,584,4294966707,4294966707,4294966707
938950843,6463853,6476170,14031,5215,5949,108,4294967273,4294966911,10242,7207,11279,313,19,167,13675,4294963265,9458,4294967086,657,536,4294966722,4294966722,4294966722
938956848,6464510,6476598,14025,5199,5915,75,4294967250,4294966898,10270,7305,11066,294,108,189,13646,4294963246,9593,4294967155,592,458,4294966720,4294966720,4294966720
938962830,6464389,6476370,14059,5307,5841,75,4294967222,4294966894,10196,7283,11008,265,185,186,13705,4294963256,9617,46,482,399,4294966729,4294966729,4294966729
938968869,6463700,6475869,14040,5311,5845,113,4294967160,4294966945,10205,7311,11245,219,254,186,13710,4294963302,9226,162,464,297,4294966703,4294966703,4294966703
938974840,6464470,6476604,14126,5423,5802,139,4294967106,4294966947,10199,7221,11487,229,329,129,13670,4294963415,9127,329,505,241,4294966721,4294966721,4294966721
938980854,6464261,6476213,14196,5464,5709,98,4294967091,4294966948,10197,7248,11519,259,358,128,13697,4294963483,9175,376,555,205,4294966712,4294966712,4294966712
938986828,6463860,6476124,14281,5597,5654,110,4294967045,4294967025,10156,7233,11495,327,348,89,13680,4294963440,9294,302,559,193,4294966730,4294966730,4294966730
938992841,6464352,6476596,14315,5571,5670,133,4294967000,4294967105,10212,7301,11365,314,378,47,13648,4294963369,9425,302,504,146,4294966721,4294966721,4294966721
938998857,6465393,6477417,14332,5573,5657,123,4294966989,4294967133,10152,7251,11262,234,412,4294967286,13557,4294963383,9340,357,493,107,4294966713,4294966713,4294966713
939004854,6465019,6477169,14211,5552,5686,100,4294967010,4294967178,10189,7310,11114,120,415,4294967228,13534,4294963420,9247,496,490,34,4294966715,4294966715,4294966715
939010847,6464533,6476852,14230,5505,5621,68,4294967045,4294967212,10195,7285,11232,45,450,4294967167,13426,4294963450,9266,549,504,12,4294966718,4294966718,4294966718
939016842,6465315,6477361,14298,5457,5566,6,4294967160,4294967194,10139,7259,11233,85,458,4294967119,13397,4294963480,9216,499,487,3,4294966720,4294966720,4294966720
939022842,6465583,6477498,14178,5416,5584,12,4294967154,4294967170,10170,7224,11246,123,448,4294967067,13350,4294963437,9221,405,553,7,4294966723,4294966723,4294966723
939028849,6464665,6477063,14185,5411,5548,4294967236,4294967199,4294967123,10144,7221,11258,189,422,4294967034,13365,4294963454,9173,290,534,4294967279,4294966717,4294966717,4294966717
939034849,6465191,6477312,14209,5328,5598,4294967229,4294967248,4294967032,10089,7245,11328,287,435,4294967005,13343,4294963360,9249,218,469,4294967245,4294966716,4294966716,4294966716
939040839,6465727,6477622,14170,5274,5531,4294967191,4294967295,4294966965,10126,7260,11240,330,412,4294967006,13320,4294963361,9224,234,394,4294967217,4294966722,4294966722,4294966722
939046857,6465023,6477040,14103,5274,5507,4294967168,103,4294966945,10128,7230,11223,383,380,4294966983,13392,4294963435,9109,259,310,4294967182,4294966713,4294966713,4294966713
939052851,6465140,6477019,14076,5270,5525,4294967168,114,4294966908,10150,7297,11244,386,369,4294966996,13386,4294963367,9087,301,254,4294967160,4294966715,4294966715,4294966715
939058863,6465641,6477376,14083,5324,5541,4294967179,134,4294966894,10130,7301,11311,403,376,4294966997,13425,4294963445,9029,320,166,4294967146,4294966707,4294966707,4294966707
939064858,6465641,6477465,14018,5276,5545,4294967230,140,4294966906,10134,7259,11369,458,354,4294966996,13496,4294963463,8912,398,54,4294967155,4294966710,4294966710,4294966710
939070848,6465491,6477690,14013,5375,5637,4294967248,157,4294966937,10171,7315,11332,515,372,4294967010,13521,4294963525,9049,532,4294967230,4294967153,4294966713,4294966713,4294966713
939076858,6466411,6478253,13979,5368,5642,4294967283,141,4294966993,10184,7352,11290,486,407,4294967029,13590,4294963530,9177,718,4294967121,4294967186,4294966711,4294966711,4294966711
939082855,6466905,6478630,14021,5361,5730,12,104,4294967012,10177,7348,11173,458,453,4294967037,13546,4294963465,9323,887,4294966949,4294967223,4294966717,4294966717,4294966717
939088849,6466240,6478359,14040,5373,5738,4294967278,35,4294967053,10193,7417,11161,388,553,4294967069,13608,4294963401,9421,1035,4294966765,4294967244,4294966717,4294966717,4294966717
939094853,6466761,6478891,14128,5351,5821,4294967239,4294967268,4294967056,10198,7399,11219,290,581,4294967058,13544,4294963290,9417,1096,4294966648,4294967266,4294966712,4294966712,4294966712
939102839,6466210,6477908,14091,5322,5905,4294967179,4294967168,4294967071,10261,7351,11261,198,615,4294967066,13501,4294963203,9331,1079,4294966554,4294967251,4294966721,4294966721,4294966721
939110861,6465749,6477923,14130,5282,5907,4294967071,4294967071,4294967093,10236,7332,11233,146,635,4294967062,13460,4294963208,9316,960,4294966568,4294967161,4294966707,4294966707,4294966707
939118842,6465870,6477503,14233,5262,5891,4294966977,4294966997,4294967043,10281,7339,11327,150,629,4294967073,13391,4294963209,9296,846,4294966537,4294967051,4294966723,4294966723,4294966723
939124835,6465876,6477912,14251,5230,5920,4294966938,4294966968,4294967024,10291,7328,11234,207,633,4294967086,13380,4294963271,9317,784,4294966506,4294966983,4294966724,4294966724,4294966724
939130849,6465423,6477473,14277,5242,5956,4294966894,4294966947,4294967050,10261,7293,11310,231,672,4294967128,13395,4294963318,9325,714,4294966432,4294966908,4294966718,4294966718,4294966718
939136839,6465607,6477381,14251,5227,5849,4294966915,4294966974,4294967035,10310,7303,11250,240,738,4294967167,13304,4294963232,9348,680,4294966378,4294966849,4294966725,4294966725,4294966725
939142851,6465568,6477294,14241,5259,5831,4294966924,4294967029,4294967041,10337,7283,11355,211,722,4294967241,13380,4294963294,9450,667,4294966256,4294966827,4294966714,4294966714,4294966714
939148841,6465059,6477286,14247,5342,5824,4294966938,4294967136,4294967011,10334,7325,11331,199,743,1,13396,4294963355,9300,623,4294966120,4294966757,4294966723,4294966723,4294966723
939154848,6465380,6477663,14211,5362,5821,4294966954,4294967240,4294967046,10324,7362,11359,227,728,37,13504,4294963382,9162,571,4294966046,4294966738,4294966719,4294966719,4294966719
939160832,6465946,6478063,14200,5388,5849,4294967003,38,4294967071,10381,7328,11364,274,733,88,13620,4294963399,9077,498,4294965985,4294966751,4294966725,4294966725,4294966725
939166857,6466054,6478558,14266,5390,5896,4294967035,106,4294967067,10384,7336,11431,314,740,110,13700,4294963391,9099,394,4294965930,4294966756,4294966713,4294966713,4294966713
939172849,6465693,6478124,14230,5398,5880,4294967020,122,4294967032,10372,7339,11461,383,733,114,13850,4294963512,8877,280,4294965841,4294966799,4294966717,4294966717,4294966717
939178845,6465678,6477822,14160,5346,5966,4294967024,131,4294967025,10320,7344,11365,416,743,93,14096,4294963512,8684,174,4294965767,4294966840,4294966718,4294966718,4294966718
939184846,6465192,6477554,14224,5347,5922,4294966997,126,4294966990,10326,7371,11430,405,794,104,14201,4294963553,8769,56,4294965591,4294966866,4294966719,4294966719,4294966719
939190860,6465303,6477325,14149,5360,5988,4294966964,145,4294966997,10288,7346,11432,422,784,85,14277,4294963525,8863,4294967217,4294965352,4294966832,4294966710,4294966710,4294966710
939196843,6466687,6478490,14189,5324,5820,4294966893,101,4294966995,10258,7381,11502,417,853,87,14278,4294963424,9036,4294967226,4294965174,4294966756,4294966723,4294966723,4294966723
939202848,6465663,6477272,14130,5300,5739,4294966962,175,4294967052,10233,7411,11464,382,971,159,14275,4294963485,9013,115,4294964975,4294966761,4294966716,4294966716,4294966716
939208834,6464491,6476452,14109,5413,5728,4294967050,192,4294967084,10105,7332,11475,404,1055,164,14222,4294963582,9194,299,4294964877,4294966633,4294966727,4294966727,4294966727
939214856,6464573,6476470,14078,5455,5739,4294967062,221,4294967124,10087,7382,11421,486,1107,154,14219,4294963538,9006,471,4294964752,4294966557,4294966710,4294966710,4294966710
939220834,6465225,6476629,14074,5500,5760,4294967084,234,4294967188,10021,7348,11409,550,1166,76,14229,4294963416,8937,598,4294964816,4294966427,4294966727,4294966727,4294966727
939226856,6464951,6476531,14037,5447,5748,4294967111,231,4294967205,10038,7389,11332,582,1209,16,14244,4294963463,8887,735,4294964929,4294966311,4294966710,4294966710,4294966710
939232846,6464588,6476305,14017,5497,5693,4294967098,217,4294967233,9990,7352,11293,480,1250,4294967255,14174,4294963505,8905,811,4294965064,4294966146,4294966721,4294966721,4294966721
939238832,6465254,6476663,14050,5533,5714,4294967171,194,4294967266,9979,7371,11256,520,1228,4294967189,14169,4294963694,8705,944,4294965214,4294966037,4294966726,4294966726,4294966726
939244834,6466002,6477152,14012,5500,5709,4294967135,192,4294967287,10032,7402,11182,379,1199,4294967105,14185,4294963821,8459,970,4294965425,4294966046,4294966727,4294966727,4294966727
939250848,6465793,6477323,14089,5464,5756,4294967154,164,4294967254,10029,7407,11185,231,1178,4294967024,14218,4294963967,7847,860,4294965756,4294965996,4294966717,4294966717,4294966717
939256848,6467870,6479190,14077,5460,5718,4294967085,147,4294967275,10067,7374,11321,196,1133,4294966978,14219,4294963940,7543,741,4294966165,4294966081,4294966718,4294966718,4294966718
939262846,6467002,6478188,14085,5492,5833,4294967143,145,4294967225,9970,7396,11547,180,1070,4294966916,14139,4294964144,7525,441,4294966570,4294966227,4294966716,4294966716,4294966716
939268846,6464259,6476007,14108,5392,5724,4294967078,88,4294967205,9935,7490,11576,250,1091,4294966941,14142,4294964240,7498,4294967101,4294966902,4294966353,4294966719,4294966719,4294966719
939274848,6464117,6476538,14152,5471,5749,4294967084,40,4294967194,9958,7675,11626,318,1138,4294966936,13981,4294964138,7913,4294966574,4294967039,4294966549,4294966719,4294966719,4294966719
939280838,6465154,6477169,14106,5512,5725,4294967063,16,4294967175,9836,7596,11567,332,1229,4294966972,14175,4294963634,8440,4294966426,4294967112,4294966390,4294966724,4294966724,4294966724
939286853,6466274,6478885,14193,5502,5713,4294967094,4294967256,4294967214,9806,7557,11565,290,1353,4294967029,14113,4294963327,9193,4294966842,4294966774,4294966052,4294966715,4294966715,4294966715
939294833,6469337,6481772,14212,5563,5656,4294967154,4294967275,4294967235,9801,7560,11363,396,1477,4294967045,13892,4294963344,9995,669,4294965827,4294965510,4294966728,4294966728,4294966728
939300845,6472079,6487463,14300,5592,5658,4294967199,4294967273,4294967249,9822,7503,11337,196,1599,4294967025,13973,4294963452,9898,1644,4294965338,4294965513,4294966719,4294966719,4294966719
939308854,6464997,6476906,14249,5544,5820,4294967205,23,4294967209,9905,7476,11257,118,1534,4294966934,13786,4294963712,8942,2088,4294965173,4294965478,4294966717,4294966717,4294966717
939314853,6464121,6474807,14229,5461,5835,4294967103,70,4294967169,9934,7534,11364,73,1502,4294966896,13891,4294963837,8251,1902,4294965347,4294965529,4294966715,4294966715,4294966715
939320857,6461392,6470585,14185,5450,5878,4294966980,117,4294967118,10011,7391,11367,76,1425,4294966847,14150,4294963864,7929,1687,4294965832,4294965528,4294966713,4294966713,4294966713
939326837,6460901,6472373,14248,5375,5911,4294966852,142,4294967045,10018,7370,11654,182,1349,4294966823,14065,4294963959,7933,1401,4294966022,4294965615,4294966723,4294966723,4294966723
939332857,6463617,6475071,14189,5449,5877,4294966655,181,4294967024,10090,7378,11709,289,1252,4294966765,14187,4294964067,8172,1185,4294966001,4294965672,4294966713,4294966713,4294966713
939338846,6466376,6477681,14145,5481,5897,4294966511,209,4294967039,10069,7441,11576,317,1088,4294966715,14214,4294964258,8074,1098,4294966005,4294965736,4294966715,4294966715,4294966715
939344850,6465615,6477497,14132,5460,5916,4294966412,213,4294967078,10019,7480,11727,0,990,4294966683,14334,4294964481,7760,1016,4294965939,4294965799,4294966715,4294966715,4294966715
939350855,6464062,6476291,14164,5470,5918,4294966464,152,4294967136,9980,7618,11875,181,951,4294966751,14383,4294964559,7592,984,4294965938,4294966044,4294966710,4294966710,4294966710
939356845,6464837,6477009,14170,5408,6014,4294966552,87,4294967191,9919,7879,11993,252,1037,4294966848,14274,4294964404,7910,997,4294965791,4294966107,4294966718,4294966718,4294966718
939362846,6465029,6477178,14097,5408,6124,4294966621,4294967254,4294967208,9788,7892,11924,246,1202,4294966987,14548,4294964000,8738,1487,4294965381,4294966017,4294966719,4294966719,4294966719
939370850,6464689,6477337,14075,5339,6130,4294966718,4294967129,4294967190,9694,8142,11775,135,1320,4294967087,14366,4294963904,9708,2348,4294964443,4294965378,4294966714,4294966714,4294966714
939378851,6466107,6477662,13984,5376,6190,4294966739,4294967058,4294967198,9883,8098,11561,4294966998,1389,4294967174,14602,4294963577,9441,3713,4294964053,4294965544,4294966715,4294966715,4294966715
939386865,6465763,6477887,13959,5404,6094,4294966678,4294967055,4294967200,9945,7881,11668,4294966755,1391,4294967245,14179,4294963757,9228,4461,4294963921,4294965301,4294966706,4294966706,4294966706
939394839,6466653,6478957,14147,5406,5886,4294966614,4294967052,4294967247,9916,7609,11773,4294966747,1354,4294967224,14234,4294963888,8742,4306,4294964177,4294965248,4294966725,4294966725,4294966725
939402867,6467608,6479603,14234,5399,5796,4294966569,4294966931,4294967269,9847,7400,11746,4294966720,1184,4294967145,14131,4294964064,8316,3631,4294964434,4294965124,4294966701,4294966701,4294966701
939410839,6468708,6481194,14327,5314,5783,4294966441,4294966877,4294967289,10022,7252,11632,4294966699,876,4294967005,14114,4294964232,7797,3183,4294964931,4294965388,4294966725,4294966725,4294966725
939418853,6469806,6481972,14414,5323,5822,4294966410,4294966894,4294967273,10015,7093,11715,4294966998,668,4294967006,13973,4294965084,7555,2009,4294964694,4294964747,4294966713,4294966713,4294966713
939426845,6468157,6481139,14292,5251,5779,4294966376,4294967061,4294967274,9975,7271,11698,4294967040,552,4294966900,14772,4294964746,7642,2131,4294965016,4294965519,4294966717,4294966717,4294966717
939434843,6467052,6479656,14203,5335,5855,4294966376,4294967261,4294967284,9854,7366,11680,4294967187,624,4294966952,14284,4294964823,8719,2658,4294964287,4294965563,4294966719,4294966719,4294966719
939442848,6467740,6480783,14024,5324,5851,4294966381,234,28,9694,7712,11628,4294967171,715,4294966991,14554,4294964309,9567,3830,4294963391,4294965421,4294966713,4294966713,4294966713
939448845,6467741,6481401,13890,5346,5943,4294966376,400,38,9621,7467,11702,4294966965,858,4294967055,14340,4294964142,9566,4684,4294962441,4294965290,4294966716,4294966716,4294966716
939454852,6467753,6480783,13822,5433,6041,4294966299,535,65,9592,7515,11707,4294967183,1001,4294967205,14585,4294964315,8996,5122,4294962563,4294965143,4294966715,4294966715,4294966715
939460831,6468000,6480861,13770,5442,6188,4294966221,520,128,9558,7459,11692,4294967268,1067,4294967206,13604,4294965549,7986,4228,4294962439,4294964304,4294966729,4294966729,4294966729
939466851,6467781,6481075,13753,5452,6185,4294966131,354,156,9358,7349,11815,37,1004,4294967094,14575,4294964392,7145,3442,4294963359,4294964566,4294966715,4294966715,4294966715
939472856,6469912,6483100,13886,5354,6294,4294966137,60,184,9677,7171,11789,4294967217,1046,4294967067,14536,4294964664,6636,4359,4294963930,4294964939,4294966713,4294966713,4294966713
939478853,6473338,6486391,14000,5171,6218,4294966164,4294967070,186,9699,7095,11764,109,1089,4294967090,14632,4294964957,6567,3758,4294964347,4294965063,4294966713,4294966713,4294966713
939484843,6469833,6483551,14063,5200,6050,4294966299,4294966847,217,9846,7287,11855,192,1120,4294967048,15052,4294965332,6523,3849,4294964690,4294965415,4294966718,4294966718,4294966718
939490842,6467465,6481606,14044,5141,5995,4294966381,4294966694,236,9902,7368,11919,212,1205,4294967110,15226,4294965440,6809,3767,4294964613,4294965734,4294966720,4294966720,4294966720
939496851,6471703,6485640,14105,5089,5897,4294966513,4294966716,282,9735,7480,11832,370,957,4294967205,15918,4294965043,7808,3949,4294963887,4294965586,4294966718,4294966718,4294966718
939502846,6470734,6484587,14026,5094,5800,4294966837,4294966847,366,9755,7750,11715,254,987,4294967241,15546,4294964679,9118,4831,4294963157,4294965677,4294966719,4294966719,4294966719
939508831,6467325,6481355,13972,5199,5850,4294967014,4294966934,410,9664,7784,11759,4294967263,912,4294967189,15656,4294964339,9451,5433,4294962016,4294965480,4294966726,4294966726,4294966726
939514849,6467529,6481464,13956,5135,5836,4294967257,4294967202,464,9655,7961,11717,4294966772,863,4294967232,15308,4294964355,9272,5420,4294962041,4294965608,4294966714,4294966714,4294966714
939520856,6468958,6482632,13941,5124,5852,61,46,398,9627,7546,11790,4294966688,679,4294967134,14954,4294964404,8428,5453,4294962497,4294965581,4294966711,4294966711,4294966711
939526845,6468955,6483135,14000,5116,6054,9,101,322,9652,7330,11892,4294966685,579,4294967117,14830,4294964774,7577,4942,4294963139,4294965577,4294966720,4294966720,4294966720
939532845,6468298,6482561,13983,5079,6263,4294967213,57,252,9744,7144,12008,4294966783,609,4294967106,14301,4294964809,6922,3852,4294963749,4294965670,4294966717,4294966717,4294966717
939538837,6469730,6483230,13995,5071,6290,4294967020,4294967162,135,9602,7251,11993,4294967028,581,4294967091,14489,4294965294,6368,3640,4294964123,4294965784,4294966720,4294966720,4294966720
939544860,6469877,6483431,13943,5123,6391,4294966829,4294966945,40,9625,7229,11815,4294966944,454,4294967018,14590,4294965621,6215,3329,4294964715,4294965994,4294966709,4294966709,4294966709
939550849,6470271,6483983,14053,5103,6197,4294966576,4294966776,8,9896,7201,11797,4294966993,443,4294966983,11479,4294966109,7298,3444,4294964607,4294965929,4294966713,4294966713,4294966713
939556830,6472196,6485437,14056,5188,6246,4294966602,4294966760,4294967291,9796,7177,11811,4294966948,499,4294967053,14442,4294966601,7287,226,4294963482,4294963502,4294966728,4294966728,4294966728
939564843,6472578,6485875,14150,5286,6040,4294966498,4294966971,67,9952,7455,11767,4294966975,371,4294967016,15064,4294965828,7530,3929,4294962342,4294966129,4294966718,4294966718,4294966718
939570845,6468956,6482560,14251,5428,5998,4294966645,4294967161,180,10030,7434,11758,4294967013,524,4294967052,16394,4294965856,7503,4988,4294962835,4294965940,4294966717,4294966717,4294966717
939578849,6466526,6479333,14395,5554,6007,4294966746,179,284,9903,7294,11924,4294967159,716,4294967188,14954,4294966311,8541,5092,4294961892,4294966583,4294966715,4294966715,4294966715
939584858,6467615,6480876,14553,5505,5902,4294966765,388,350,9663,7337,12063,4294967162,923,4294967176,14966,4294965940,7916,4537,4294961505,4294966288,4294966714,4294966714,4294966714
939590842,6467515,6480807,14615,5412,5898,4294966796,513,395,9493,7514,11998,4294967153,1042,4294967172,15201,4294965337,7287,4272,4294961722,4294965875,4294966723,4294966723,4294966723
939596843,6468395,6481114,14599,5505,5932,4294966804,527,363,9305,7531,12067,4294967071,1195,4294967219,15409,4294965619,6761,4524,4294962420,4294965774,4294966722,4294966722,4294966722
939602873,6467947,6480371,14544,5445,5968,4294966739,522,288,9306,7381,11950,4294967023,1253,4294967082,14227,4294965207,6886,4197,4294962816,4294965588,4294966700,4294966700,4294966700
939608847,6467597,6480480,14541,5281,5977,4294966683,466,231,9197,7582,11807,4294966864,1316,4294966966,14447,4294965586,6506,4440,4294962696,4294965204,4294966718,4294966718,4294966718
939614841,6467949,6480836,14410,5173,5992,4294966608,523,180,9382,7418,11754,4294966594,1305,4294966846,14410,4294965250,6197,4443,4294962577,4294965600,4294966720,4294966720,4294966720
939620847,6468762,6481392,14402,4945,5987,4294966535,582,93,9599,7151,11724,4294966521,1167,4294966739,14958,4294965911,5997,4476,4294963251,4294965728,4294966720,4294966720,4294966720
939626834,6468731,6481647,14136,4972,5929,4294966751,691,83,9667,7084,12084,4294966560,1092,4294966724,14056,4294966699,5999,4092,4294963618,4294965634,4294966727,4294966727,4294966727
939632861,6468767,6481598,13977,4959,6076,4294966788,773,81,9566,7168,12183,4294966978,841,4294966711,14769,4294966800,5887,3257,4294963970,4294965412,4294966708,4294966708,4294966708
939638864,6471727,6484267,13810,4929,6201,4294966778,875,93,9752,6917,12148,4294967180,547,4294966696,15274,4294966216,6485,3958,4294964208,4294966124,4294966705,4294966705,4294966705
939644832,6469775,6482387,13749,4785,6255,4294966770,896,154,9792,7055,12036,4294967171,381,4294966645,15178,4294966505,6949,4314,4294964072,4294966192,4294966728,4294966728,4294966728
939650856,6467804,6480538,13684,4918,6346,4294966855,789,217,9927,7131,11948,4294966914,229,4294966610,14961,4294966364,7117,3991,4294964174,4294966118,4294966712,4294966712,4294966712
939656839,6468413,6480757,13683,4782,6400,4294966772,700,253,9744,7000,11970,4294966891,199,4294966733,14873,4294966394,7003,4036,4294964066,4294966181,4294966720,4294966720,4294966720
939662850,6467211,6479668,13591,4897,6450,4294966806,544,279,9793,6903,12093,4294966896,156,4294966799,15114,4294966079,6301,3924,4294964340,4294966467,4294966716,4294966716,4294966716
939668868,6467089,6480065,13560,4846,6419,4294966761,392,289,9655,6868,12133,4294967004,193,4294966800,15229,4294966056,5872,3973,4294964984,4294966731,4294966703,4294966703,4294966703
939674845,6467617,6480391,13626,4816,6366,4294966839,211,286,9668,7074,12090,4294967104,294,4294966845,14984,4294966089,6197,4075,4294965361,4294966816,4294966716,4294966716,4294966716
939680846,6468250,6481029,13685,4937,6412,4294966821,35,271,9583,7084,11972,4294967166,496,4294966937,14993,4294966179,6582,3992,4294965136,4294966718,4294966719,4294966719,4294966719
939686848,6467592,6480501,13709,4924,6440,4294966792,4294967124,221,9562,7168,11913,4294967000,700,4294967042,14987,4294966158,6563,3967,4294965079,4294966870,4294966715,4294966715,4294966715
939694853,6468042,6480652,13817,4856,6335,4294966671,4294966953,193,9537,6864,11944,4294966979,775,4294966956,14883,4294966217,6226,3770,4294965746,17,4294966715,4294966715,4294966715
939700845,6468824,6481776,13914,4793,6161,4294966697,4294966936,155,9555,6948,11997,4294967110,805,4294967029,14842,4294966265,6015,3518,4294966307,379,4294966720,4294966720,4294966720
939706864,6467685,6480617,13995,4700,6220,4294966757,4294966858,128,9482,6955,11959,4294967199,743,4294967004,14780,4294966334,6244,3279,4294966514,694,4294966707,4294966707,4294966707
939712845,6467308,6480247,14030,4716,6187,4294966821,4294966754,88,9634,6971,11866,4294967253,711,4294967015,14622,4294966503,6074,2976,4294966625,974,4294966720,4294966720,4294966720
939718842,6467873,6480258,13963,4801,6257,4294966761,4294966615,15,9502,6996,11881,56,635,4294967086,14568,4294966670,5622,2714,4294966874,1248,4294966720,4294966720,4294966720
939724853,6467480,6479869,14021,4705,6209,4294966824,4294966529,17,9573,7052,12006,65,515,4294967120,14556,4294966727,5376,2521,4294967071,1450,4294966717,4294966717,4294966717
939730840,6467346,6480171,14024,4814,6189,4294966879,4294966397,4294967235,9525,7120,12120,134,424,4294967159,14596,4294966807,5690,2443,4294966955,1644,4294966722,4294966722,4294966722
939736850,6468001,6480513,14177,4877,6138,4294967028,4294966398,4294967267,9639,7175,12108,254,389,4294967241,14730,4294966702,6384,2467,4294966421,1752,4294966712,4294966712,4294966712
939742833,6468050,6480641,14160,4937,6076,4294967096,4294966468,4294967258,9564,7276,12130,392,400,51,14695,4294966666,6993,2525,4294965849,1824,4294966728,4294966728,4294966728
939748843,6467337,6480028,14250,5029,6020,4294967133,4294966597,4294967248,9635,7369,12141,281,347,10,14660,4294966573,7228,2305,4294965602,1920,4294966718,4294966718,4294966718
939754839,6466880,6479463,14261,5046,6009,4294967163,4294966758,4294967286,9684,7515,12159,4294967282,328,70,14503,4294966452,7057,2287,4294965728,1962,4294966725,4294966725,4294966725
939760856,6466927,6479143,14261,5041,5976,4294967151,4294966939,75,9816,7106,12031,195,215,4,14278,4294966528,6704,1835,4294966228,1883,4294966715,4294966715,4294966715
939766840,6467104,6479819,14197,5048,6076,4294967125,4294967137,94,9754,7002,11995,191,257,39,14260,4294966462,6023,1056,4294967020,1897,4294966723,4294966723,4294966723
939772851,6466624,6479130,14132,4849,6216,4294966980,4294967253,66,9836,6837,12060,322,105,4294967285,14379,4294966494,5022,394,832,1825,4294966714,4294966714,4294966714
939778852,6467520,6479452,14003,4757,6442,4294966869,32,4294967257,9796,6795,12114,457,53,4294967295,14495,4294966360,4578,4294967186,1907,1784,4294966713,4294966713,4294966713
939784838,6467109,6479443,13907,4757,6474,4294966765,55,4294967168,9691,6920,12041,561,22,4294967292,14925,4294966168,4936,4294967071,2524,1744,4294966725,4294966725,4294966725
939790831,6466402,6478832,13856,4494,6580,4294966660,4294967266,4294967015,9785,6786,11949,438,4294967162,4294967247,14790,4294966136,5966,4294967068,2694,1715,4294966729,4294966729,4294966729
939798841,6467733,6479783,13706,4498,6574,4294966531,4294967123,4294966880,9969,6731,11818,623,4294967099,169,14691,4294966504,6919,4294966937,2905,1880,4294966723,4294966723,4294966723
939804861,6466433,6479114,13724,4467,6478,4294966555,4294967042,4294966818,9901,6840,11956,694,4294967136,321,14554,4294966795,6915,4294966131,2961,2291,4294966709,4294966709,4294966709
939810840,6464397,6476760,13670,4628,6386,4294966532,4294966961,4294966749,9855,6892,11972,662,4294967053,414,14684,4294966814,5914,4294965499,3230,2566,4294966718,4294966718,4294966718
939816844,6464326,6476722,13800,4598,6272,4294966585,4294966870,4294966750,9735,7107,11999,620,4294966938,535,14723,4294966734,4921,4294965558,3783,2855,4294966721,4294966721,4294966721
939822843,6464178,6476375,13774,4541,6250,4294966612,4294966785,4294966712,9844,7208,12030,585,4294967062,752,15026,4294966823,4378,4294966117,4148,3014,4294966718,4294966718,4294966718
939828855,6463952,6476695,13929,4622,6259,4294966714,4294966668,4294966713,9570,7268,12037,697,4294967177,962,15107,4294966883,4269,4294966460,4187,3416,4294966714,4294966714,4294966714
939834854,6464221,6476903,13935,4694,6205,4294966865,4294966619,4294966673,9472,7511,12087,674,4294967238,1112,15324,4294966806,4896,4294966372,3807,3555,4294966714,4294966714,4294966714
939840859,6464515,6476668,13940,4817,6188,4294966952,4294966620,4294966764,9339,7743,12017,601,77,1238,15434,4294966383,6119,4294966204,3152,3589,4294966708,4294966708,4294966708
939846849,6463590,6475839,14004,4805,6064,4294967068,4294966634,4294966761,9184,7691,11872,321,262,1236,15628,4294965935,6836,4294966413,2462,3453,4294966714,4294966714,4294966714
939852861,6464002,6476137,14015,4860,6142,4294967139,4294966694,4294966788,9110,7653,11741,244,287,1290,15936,4294965624,6511,4294966909,2380,3520,4294966710,4294966710,4294966710
939858835,6464670,6476428,14036,4934,6115,4294967095,4294966676,4294966775,9090,7448,11747,172,348,1275,16120,4294966290,6334,4294967017,3032,3859,4294966726,4294966726,4294966726
939864837,6464405,6476198,14044,4890,6142,4294967045,4294966711,4294966831,9068,7318,11826,277,256,1223,16104,4294966447,5865,4294967043,3856,4176,4294966726,4294966726,4294966726
939870848,6463595,6476048,14055,4984,6192,4294967014,4294966692,4294966826,9137,7329,11920,376,4294967271,1167,15401,4294966344,5947,4294966486,4360,4081,4294966714,4294966714,4294966714
939876857,6464446,6476364,14093,4984,6241,4294967053,4294966779,4294966855,9342,7234,11924,552,4294967145,1080,16087,4294966330,5869,4294965954,4293,3567,4294966714,4294966714,4294966714
939882839,6464636,6476331,14073,4941,6241,4294967041,4294966862,4294966899,9468,7252,11958,714,4294967001,959,15546,4294965774,6419,4294966268,4014,3787,4294966724,4294966724,4294966724
939888845,6464001,6475627,14059,5021,6217,4294967119,4294966934,4294966917,9619,7225,12009,798,4294966843,887,15875,4294965765,6401,4294966612,3555,3682,4294966721,4294966721,4294966721
939894849,6464447,6475888,14137,4993,6239,4294967103,4294966976,4294966924,9796,7260,11862,853,4294966643,831,15598,4294965934,6826,4294967132,3226,3953,4294966719,4294966719,4294966719
939900850,6464601,6475733,14160,5041,6174,4294967216,4294967011,4294966968,9915,7222,11896,807,4294966547,799,15162,4294965915,6925,4294966344,2867,3539,4294966715,4294966715,4294966715
939906855,6464233,6475568,14219,5024,6060,4294967234,4294967090,4294967025,9845,7300,11967,764,4294966380,683,15480,4294965726,6744,4294966184,2584,2982,4294966713,4294966713,4294966713
939912847,6464327,6475660,14244,5042,6053,4294967292,4294967125,4294967039,10002,7302,11869,638,4294966330,702,15911,4294965350,6820,4294966162,2375,2726,4294966721,4294966721,4294966721
939918844,6464803,6475708,14230,4969,6117,25,4294967115,4294967019,10092,7357,11691,686,4294966382,715,16001,4294965074,7384,4294966616,2566,2794,4294966718,4294966718,4294966718
939924843,6463777,6474940,14313,4974,6087,55,4294967141,4294966945,10128,7351,11760,757,4294966636,854,16086,4294964683,6910,286,2885,2555,4294966717,4294966717,4294966717
939930862,6462792,6475086,14253,4973,6028,38,4294967138,4294966897,10053,7305,11864,806,4294966705,862,15401,4294965510,6651,271,3208,2744,4294966707,4294966707,4294966707
939936836,6463799,6475663,14286,5050,6044,52,4294967095,4294966861,10139,7363,12005,710,4294966740,868,15252,4294965558,5624,4294966691,3146,2009,4294966725,4294966725,4294966725
939942845,6464615,6476304,14293,5003,6160,4294967290,4294967036,4294966840,10150,7380,12095,688,4294966780,897,15401,4294965503,6131,4294966295,2961,1704,4294966719,4294966719,4294966719
939948842,6465639,6477632,14326,5050,6132,50,4294966976,4294966848,10059,7516,12045,731,4294966867,966,15534,4294965098,6794,4294966523,2664,1258,4294966719,4294966719,4294966719
939954845,6468611,6480756,14300,5047,6170,117,4294966887,4294966872,10113,7574,11890,797,4294967063,986,15808,4294965245,7260,4294967277,2534,1077,4294966721,4294966721,4294966721
939960848,6469524,6484129,14291,5094,6108,176,4294966859,4294966946,10021,7577,11803,763,4294967156,993,15598,4294965228,7234,185,2767,1084,4294966715,4294966715,4294966715
939966847,6464927,6478255,14230,5197,6184,254,4294966799,4294967028,10052,7486,11735,702,4294967170,980,15763,4294965525,6722,66,3111,909,4294966716,4294966716,4294966716
939972851,6461311,6470871,14285,5284,6117,277,4294966760,4294967099,9934,7447,11904,618,4294967176,882,15488,4294965636,6827,4294967263,3591,1191,4294966715,4294966715,4294966715
939978847,6459999,6469972,14318,5306,5992,235,4294966750,4294967144,9987,7274,11991,699,322,812,15692,4294965542,6968,4294966845,3491,987,4294966718,4294966718,4294966718
939984847,6459287,6471132,14368,5392,5930,255,4294966800,4294967164,9738,7345,11973,976,103,720,16047,4294965141,7107,4294966709,3765,1351,4294966716,4294966716,4294966716
939990858,6460245,6471811,14392,5328,5968,237,4294966820,4294967164,9817,7362,11693,761,41,517,15977,4294965181,7314,4294966479,3925,1531,4294966708,4294966708,4294966708
939996842,6462124,6473500,14310,5221,5910,138,4294966907,4294967115,9772,7359,11316,645,36,330,15610,4294965323,7514,4294965554,3792,1461,4294966723,4294966723,4294966723
940002847,6462600,6473911,14371,5238,5797,10,4294967023,4294967071,9674,7243,11469,427,93,197,15412,4294965174,7286,4294964823,3545,1511,4294966721,4294966721,4294966721
940008836,6462512,6474012,14310,5114,5821,4294967178,4294967113,4294966995,9779,6873,11583,422,183,110,15600,4294964690,6976,4294964605,3659,1966,4294966726,4294966726,4294966726
940014844,6462739,6474518,14171,4970,6077,4294967136,4294967143,4294966934,9635,6962,11620,655,229,10,15028,4294965097,7089,4294964569,3814,1874,4294966722,4294966722,4294966722
940020849,6463505,6474796,13951,4809,6228,4294967092,4294967122,4294966883,9835,6925,11539,755,356,27,14796,4294965216,6735,4294963736,3949,1226,4294966719,4294966719,4294966719
940026849,6463271,6474482,13872,4756,6387,4294967104,4294967071,4294966834,9708,6929,11543,1035,371,29,14768,4294964822,6546,4294963686,4321,1323,4294966715,4294966715,4294966715
940032843,6463427,6474715,13692,4811,6385,4294967132,4294966944,4294966766,9678,7006,11570,1027,282,29,14325,4294965034,6509,4294963754,4783,1305,4294966723,4294966723,4294966723
940038849,6464308,6475453,13630,4838,6424,4294967230,4294966820,4294966785,9896,7160,11681,1086,307,69,15170,4294964302,5598,4294964150,5284,1629,4294966713,4294966713,4294966713
940044833,6464041,6475467,13709,4968,6302,88,4294966727,4294966839,9684,7278,11898,1049,292,122,14327,4294965342,5739,4294965004,5905,1628,4294966725,4294966725,4294966725
940050846,6464065,6475721,13870,5024,5966,350,4294966610,4294966960,9848,7235,11967,1138,229,250,14326,4294965255,5961,4294965152,6063,1667,4294966716,4294966716,4294966716
940056841,6464508,6475880,13899,5129,5766,627,4294966530,4294967071,9841,7490,11864,1251,419,430,14894,4294965732,6963,4294964435,5357,851,4294966724,4294966724,4294966724
940062838,6464358,6475792,14019,5174,5581,903,4294966579,4294967151,9634,7858,11646,984,124,345,14906,4294965275,7892,4294964562,4886,1088,4294966725,4294966725,4294966725
940068835,6463771,6475604,14082,5275,5329,1043,4294966739,4294967208,9817,7816,11340,561,102,303,14719,4294965006,8615,4294965181,3883,1285,4294966726,4294966726,4294966726
940074848,6464405,6476270,14114,5302,5290,1028,4294967044,4294967218,9841,7685,11334,361,4294967282,229,14614,4294964818,8913,4294965543,2690,1378,4294966719,4294966719,4294966719
940080834,6464810,6476346,14182,5310,5365,806,88,4294967141,9854,7360,11384,186,43,218,14752,4294964624,8883,4294965535,2114,1393,4294966727,4294966727,4294966727
940086864,6464310,6476245,14175,5247,5565,515,360,4294967043,9608,7384,11431,205,4294967086,61,14646,4294964625,8664,4294965116,1915,1279,4294966709,4294966709,4294966709
940092836,6464440,6476314,14123,5189,5818,166,451,4294966923,9732,7056,11427,426,4294967023,4294967263,14706,4294964592,8338,4294964700,1996,1123,4294966726,4294966726,4294966726
940098847,6464973,6476624,13968,5112,6200,4294967172,357,4294966799,9400,7528,11737,512,4294966803,4294967159,14294,4294964445,8240,4294964375,2153,883,4294966718,4294966718,4294966718
940104857,6465413,6477261,13921,5150,6306,4294966903,207,4294966748,9437,7292,11719,438,4294966632,4294967014,14260,4294964279,7895,4294964123,2135,425,4294966712,4294966712,4294966712
940110859,6464805,6477133,13888,5199,6292,4294966719,4294967294,4294966758,9484,7327,11646,349,4294966448,4294966956,14461,4294964120,7544,4294964135,2376,191,4294966708,4294966708,4294966708
940118837,6465735,6477489,13932,5324,6231,4294966673,4294967055,4294966840,9670,7293,11646,850,4294966709,4294967166,14398,4294964361,7373,4294964078,2679,4294967255,4294966724,4294966724,4294966724
940126864,6465810,6478180,14105,5482,6275,4294966772,4294966854,4294966992,9760,7559,11797,505,4294966446,4294967107,14686,4294964269,7227,4294963898,2870,4294967111,4294966709,4294966709,4294966709
940134841,6465604,6478111,14181,5609,6267,4294966913,4294966749,4294967156,10125,7445,11796,519,4294966426,4294967160,14872,4294964292,7175,4294964062,2970,4294967268,4294966721,4294966721,4294966721
940142855,6466729,6479460,14342,5649,6181,4294967034,4294966782,4294967286,10346,7525,11885,766,4294966670,22,15132,4294964372,7279,4294964138,2894,192,4294966711,4294966711,4294966711
940148849,6466630,6479830,14395,5667,6097,4294967129,4294966840,50,10470,7506,11919,788,4294966787,70,15423,4294964594,7334,4294964032,2924,266,4294966717,4294966717,4294966717
940154843,6466413,6479279,14517,5581,5994,4294967250,4294966914,88,10630,7440,11889,905,4294966896,81,15605,4294964727,7364,4294963952,3027,421,4294966721,4294966721,4294966721
940160855,6466970,6479663,14461,5515,6032,81,4294967013,105,10541,7565,11964,861,4294967052,105,15677,4294964815,7462,4294963929,3198,612,4294966714,4294966714,4294966714
940166869,6466421,6479301,14504,5391,5976,172,4294967086,110,10409,7750,11995,522,4294967079,8,15645,4294964821,7746,4294963901,3389,815,4294966703,4294966703,4294966703
940172853,6466208,6479361,14475,5335,5938,247,4294967182,109,10470,7807,11937,125,4294967169,4294967205,15550,4294964802,8003,4294964129,3423,972,4294966711,4294966711,4294966711
940178832,6466962,6479828,14438,5186,5981,281,4294967248,124,10450,7876,11788,191,71,5,15455,4294964822,8094,4294964362,3464,1072,4294966726,4294966726,4294966726
940184842,6466773,6479514,14344,5091,5990,298,4294967266,76,10201,8241,11752,14,138,4294967218,15303,4294964794,8222,4294964551,3473,1114,4294966718,4294966718,4294966718
940190856,6466144,6479344,14228,5034,6075,269,4294967263,54,9837,8396,11853,4294967001,161,4294967194,15147,4294964752,8287,4294964897,3391,1205,4294966711,4294966711,4294966711
940196852,6466107,6478726,14154,5042,5968,280,4294967196,64,9838,8540,11594,4294966750,163,4294967084,14924,4294964588,8252,4294965294,3339,1328,4294966713,4294966713,4294966713
940202850,6465775,6478224,14078,5077,6050,228,4294967084,80,9818,8530,11469,4294966717,287,4294967180,14652,4294964452,8291,4294965712,3232,1289,4294966719,4294966719,4294966719
940208847,6464847,6477477,14088,5147,6041,254,4294966968,112,9555,8588,11391,4294966441,215,4294967139,14416,4294964261,8351,4294966119,3043,1225,4294966717,4294966717,4294966717
940214849,6464873,6477113,14092,5193,5921,151,4294966798,160,9603,8432,11376,4294966167,91,4294967210,14237,4294964051,8535,4294966191,2771,1015,4294966717,4294966717,4294966717
940220843,6464963,6476940,14078,5199,5854,99,4294966676,193,9687,8165,11308,4294966066,4294967241,4294967134,13988,4294963788,8909,4294966268,2499,850,4294966719,4294966719,4294966719
940226860,6464279,6476232,14168,5426,5853,64,4294966597,236,9627,8083,11343,4294966154,4294967078,4294967250,13660,4294963514,9179,4294966296,2249,708,4294966710,4294966710,4294966710
940232846,6463724,6475807,14199,5426,5870,4294967272,4294966546,267,9617,7898,11318,4294965994,4294966833,4294967166,13484,4294963383,9205,4294966387,1891,493,4294966716,4294966716,4294966716
940240853,6463657,6475326,14387,5526,5768,4294967233,4294966591,240,9922,7553,11354,4294965872,4294966610,4294967136,13383,4294963417,9435,4294966349,1401,237,4294966713,4294966713,4294966713
940246846,6463731,6475790,14427,5578,5827,4294967098,4294966643,213,9984,7285,11407,4294965960,4294966524,4294967159,13296,4294963500,9489,4294966214,1090,81,4294966718,4294966718,4294966718
940252850,6463482,6475359,14465,5481,5899,4294966853,4294966749,161,10043,7081,11569,4294966107,4294966466,4294967192,13332,4294963461,9443,4294966093,829,4294967267,4294966716,4294966716,4294966716
940260848,6463669,6475193,14525,5496,5757,4294966630,4294967006,129,10177,6906,11629,4294966339,4294966452,4294967249,13458,4294963498,9325,4294966012,504,4294967182,4294966717,4294966717,4294966717
940268865,6462932,6474580,14492,5351,5901,4294966474,4294967282,130,10280,6821,11501,4294966530,4294966551,11,13593,4294963560,9126,4294966123,243,4294967142,4294966707,4294966707,4294966707
940274850,6464066,6475688,14393,5183,5932,4294966497,193,146,10309,6795,11650,4294966502,4294966645,42,13779,4294963502,8973,4294966257,132,4294967135,4294966714,4294966714,4294966714
940280841,6464002,6475307,14269,5114,6081,4294966583,387,141,10357,6670,11862,4294966668,4294966662,84,13954,4294963555,8706,4294966366,98,4294967130,4294966719,4294966719,4294966719
940286849,6463394,6475110,14219,5105,6144,4294966687,469,161,10373,6639,12138,4294966891,4294966717,155,13976,4294963595,8630,4294966502,160,4294967188,4294966718,4294966718,4294966718
940292837,6463605,6475341,14088,5026,6150,4294966804,421,183,10346,6701,11976,4294967023,4294966786,182,14130,4294963605,8775,4294966585,210,4294967248,4294966725,4294966725,4294966725
940298855,6464285,6475692,14032,4873,6302,4294966884,376,205,10296,6824,11812,4294967203,4294966829,218,14217,4294963646,8891,4294966650,315,20,4294966711,4294966711,4294966711
940304854,6464199,6475434,13888,4896,6214,4294966989,237,244,10306,6828,11790,4294967112,4294966855,222,14215,4294963684,8665,4294966690,447,82,4294966715,4294966715,4294966715
940310848,6463622,6475284,13767,4826,6206,4294967107,121,265,10243,6806,11794,4294967006,4294966906,257,14199,4294963828,8538,4294966720,656,164,4294966718,4294966718,4294966718
940316859,6464255,6475950,13730,4814,6145,4294967280,4294967268,310,10181,6829,11747,4294966900,4294966982,213,14161,4294963930,8476,4294966751,846,232,4294966710,4294966710,4294966710
940322836,6464415,6475867,13589,4784,6088,18,4294967161,303,10104,6715,11828,4294967268,4294967116,377,14036,4294964016,8515,4294966666,1061,337,4294966724,4294966724,4294966724
940328847,6463507,6475283,13461,4688,6147,97,4294967049,304,9927,6871,11757,208,4294967173,415,13912,4294963984,8527,4294966604,1253,437,4294966715,4294966715,4294966715
940334846,6463831,6475474,13530,4776,6064,197,4294966916,318,9829,6859,11845,331,4294967291,377,13791,4294964034,8554,4294966587,1418,541,4294966720,4294966720,4294966720
940340843,6464275,6475799,13419,4904,6048,280,4294966801,327,9601,6993,11709,89,4294967198,257,13642,4294963834,8668,4294966565,1488,588,4294966718,4294966718,4294966718
940346845,6463839,6475639,13482,4952,5909,207,4294966685,263,9558,6790,11665,74,4294967200,278,13550,4294963954,8756,4294966519,1523,573,4294966721,4294966721,4294966721
940352842,6463650,6475568,13593,5087,5881,249,4294966610,256,9616,6762,11622,257,4294967206,270,13430,4294963968,8775,4294966375,1609,521,4294966720,4294966720,4294966720
940358840,6464200,6475795,13514,5149,5897,233,4294966631,231,9486,6839,11481,164,4294967075,197,13442,4294963930,8709,4294966159,1733,481,4294966724,4294966724,4294966724
940364826,6464206,6475959,13683,5283,5834,306,4294966627,225,9524,6742,11499,224,4294967003,175,13373,4294963906,8772,4294966192,1774,427,4294966732,4294966732,4294966732
940370851,6463150,6475321,13828,5400,5823,296,4294966645,183,9649,6742,11456,473,4294967041,127,13422,4294963977,8698,4294966169,1782,346,4294966715,4294966715,4294966715
940376843,6463687,6475688,13858,5310,6019,274,4294966601,140,9460,7096,11499,349,4294966946,123,13501,4294963879,8645,4294966023,1796,234,4294966717,4294966717,4294966717
940382831,6463919,6475771,14023,5416,6119,313,4294966662,102,9539,7076,11485,4294967275,4294966835,4294967271,13518,4294963766,8786,4294966169,1725,215,4294966726,4294966726,4294966726
940388844,6463249,6474952,14113,5415,6063,284,4294966683,56,9738,6930,11492,26,4294966855,4294967280,13535,4294963657,8725,4294966156,1629,154,4294966719,4294966719,4294966719
940394851,6463676,6475344,14221,5352,6098,193,4294966760,31,9854,6910,11554,4294967196,4294966792,4294967211,13604,4294963716,8757,4294966125,1523,91,4294966715,4294966715,4294966715
940400850,6464080,6475668,14271,5295,6138,129,4294966801,4294967274,10002,6886,11627,4294967173,4294966727,4294967191,13657,4294963605,8698,4294966072,1458,28,4294966716,4294966716,4294966716
940406847,6463609,6475449,14322,5268,6114,71,4294966871,4294967180,10085,6747,11628,53,4294966731,4294967185,13714,4294963699,8646,4294966064,1360,13,4294966717,4294966717,4294966717
940412852,6463609,6475219,14355,5155,6279,17,4294966923,4294967126,10203,6908,11727,212,4294966714,4294967207,13758,4294963694,8659,4294965947,1259,25,4294966718,4294966718,4294966718
940418847,6463788,6474992,14343,5099,6139,17,4294966982,4294967067,10302,6943,11656,318,4294966717,4294967223,13834,4294963688,8610,4294965921,1176,33,4294966718,4294966718,4294966718
940424839,6463306,6474782,14317,5136,6068,4294967289,4294967037,4294967010,10391,7075,11591,170,4294966761,4294967215,13936,4294963661,8703,4294965852,1130,52,4294966722,4294966722,4294966722
940430846,6462862,6474320,14324,5115,6090,4294967275,4294967118,4294966993,10388,7150,11663,21,4294966783,4294967166,14009,4294963731,8656,4294965795,1166,65,4294966715,4294966715,4294966715
940436845,6463291,6474511,14266,5084,5960,4294967233,4294967170,4294966984,10454,6995,11636,1,4294966898,4294967233,14012,4294963692,8741,4294965984,1108,176,4294966719,4294966719,4294966719
940442845,6463201,6474496,14252,5152,5897,4294967238,4294967206,4294966993,10402,7245,11723,52,4294966940,4294967240,14089,4294963683,8801,4294966109,1190,200,4294966721,4294966721,4294966721
940448855,6462482,6474250,14185,5114,5968,4294967218,4294967270,4294967044,10425,7278,11707,4294967090,4294966958,4294967180,14128,4294963711,8766,4294966221,1245,285,4294966710,4294966710,4294966710
940456845,6463061,6474459,14092,5097,5867,4294967247,4294967286,4294967113,10357,7127,11712,4294967225,4294967041,4294967196,14116,4294963782,8737,4294966442,1402,282,4294966721,4294966721,4294966721
940464833,6463665,6473956,14036,5120,5931,10,4294967178,4294967188,10284,7324,11773,33,4294967146,4294967201,14179,4294963724,8687,4294966519,1573,267,4294966728,4294966728,4294966728
940470844,6463226,6475443,14064,5176,5934,109,4294967110,4294967241,10246,7313,11717,4294967142,4294967163,4294967130,14118,4294963768,8704,4294966538,1698,294,4294966722,4294966722,4294966722
940478857,6463436,6474686,14061,5064,5907,61,4294966990,21,10228,7248,11606,4294967163,4294967205,4294967146,14134,4294963689,8766,4294966413,1788,270,4294966716,4294966716,4294966716
940484848,6463588,6475658,14111,5042,5980,28,4294966935,33,10257,7287,11619,4294967203,4294967211,4294967141,14067,4294963597,8850,4294966448,1780,255,4294966721,4294966721,4294966721
940490834,6463019,6475101,14159,5036,5927,6,4294966886,50,10179,7281,11619,4294967006,4294967182,4294967103,14078,4294963554,8763,4294966427,1736,218,4294966728,4294966728,4294966728
940496837,6464026,6475417,14168,5069,5953,39,4294966870,24,10104,7210,11656,4294967059,4294967268,4294967159,13993,4294963592,8753,4294966468,1700,201,4294966724,4294966724,4294966724
940502862,6463749,6475387,14187,5004,5962,3,4294966849,16,10165,7189,11612,4294966839,4294967221,4294967040,13899,4294963540,8834,4294966483,1682,169,4294966710,4294966710,4294966710
940508837,6463232,6474991,14238,4975,6089,15,4294966861,4294967284,10060,7211,11591,4294966935,4294967204,4294967088,13803,4294963536,8753,4294966468,1667,124,4294966723,4294966723,4294966723
940514835,6463490,6475288,14265,4982,5957,4294967279,4294966869,4294967246,10103,7121,11493,4294966794,4294967185,4294967012,13717,4294963490,8786,4294966473,1575,102,4294966725,4294966725,4294966725
940522831,6463631,6474914,14274,5006,6009,26,4294966897,4294967200,10218,7071,11415,4294966746,4294967141,4294966887,13647,4294963555,8839,4294966424,1497,83,4294966729,4294966729,4294966729
940528854,6463730,6475712,14263,4978,6025,4294967238,4294966955,4294967205,10100,6930,11473,4294966763,4294967164,4294966942,13514,4294963432,8844,4294966502,1333,90,4294966714,4294966714,4294966714
940536852,6463426,6474411,14296,4997,5851,4294967194,4294966933,4294967229,10293,6969,11417,4294966837,4294967170,4294966917,13490,4294963484,8931,4294966584,1191,67,4294966716,4294966716,4294966716
940544863,6463071,6474143,14249,4977,5879,4294967141,4294966995,4294967274,10294,6919,11326,4294966941,4294967166,4294966947,13406,4294963356,8889,4294966580,1019,95,4294966706,4294966706,4294966706
940552854,6462563,6473457,14210,4904,5878,4294967113,4294967059,48,10328,6947,11365,4294967007,4294967174,4294966959,13477,4294963405,8843,4294966729,877,115,4294966716,4294966716,4294966716
940558845,6463409,6474387,14177,4915,5848,4294967117,4294967103,89,10337,6954,11393,4294966998,4294967185,4294966988,13498,4294963395,8792,4294966721,780,146,4294966719,4294966719,4294966719
940564842,6463112,6473805,14197,4901,5857,4294967126,4294967138,111,10372,6930,11380,4294967058,4294967231,4294967017,13477,4294963300,8769,4294966669,793,181,4294966720,4294966720,4294966720
940570850,6462732,6473988,14145,4868,5907,4294967070,4294967171,110,10417,6958,11410,4294967149,4294967260,4294967025,13554,4294963385,8858,4294966684,732,187,4294966717,4294966717,4294966717
940576863,6463075,6474411,14101,4835,5906,4294967057,4294967173,139,10359,6931,11357,4294967225,9,4294967074,13501,4294963411,8727,4294966698,695,225,4294966708,4294966708,4294966708
940582858,6462952,6475031,14100,4865,5818,4294967047,4294967210,160,10372,6974,11378,10,44,4294967128,13628,4294963442,8863,4294966737,676,251,4294966710,4294966710,4294966710
940588843,6463210,6475245,14098,4878,5778,4294967046,4294967224,140,10364,7022,11409,44,66,4294967108,13594,4294963437,8917,4294966812,662,259,4294966720,4294966720,4294966720
940594855,6465061,6477334,14030,4878,5772,4294967053,4294967233,135,10342,7016,11452,113,151,4294967165,13587,4294963407,9059,4294966924,586,331,4294966712,4294966712,4294966712
940600848,6467686,6479620,13982,4865,5885,4294967082,4294967196,144,10362,7015,11480,107,143,4294967182,13562,4294963283,9105,4294966977,534,318,4294966717,4294966717,4294966717
940606847,6469378,6484051,14002,4891,5844,4294967156,4294967201,154,10384,7001,11442,88,103,4294967199,13535,4294963240,9195,4294966960,538,308,4294966717,4294966717,4294966717
940612848,6466477,6481325,13962,4889,5950,4294967211,4294967175,137,10403,7015,11353,17,39,4294967242,13475,4294963225,9119,4294966927,520,298,4294966718,4294966718,4294966718
