t_us,ads_ch1,ads_ch2,ax0,ay0,az0,gx0,gy0,gz0,ax1,ay1,az1,gx1,gy1,gz1,ax2,ay2,az2,gx2,gy2,gz2,dt0_us,dt1_us,dt2_us
52912948,6461370,6473614,15405,3632,3661,4294967016,38,4294967027,11912,7120,9445,111,102,105,15304,4294963973,6113,508,186,413,4294966721,4294966721,4294966721
52918955,6462638,6473873,15464,3652,3474,4294967074,4294967126,4294967078,11885,7042,9271,97,108,34,15227,4294964011,6160,656,89,357,4294966713,4294966713,4294966713
52924949,6462107,6473679,15484,3702,3414,4294967153,4294966964,4294967152,11900,6957,8968,95,177,4294967266,15115,4294963932,6210,823,4294967288,301,4294966718,4294966718,4294966718
52930943,6461352,6473834,15539,3724,3312,4294967224,4294966861,4294967221,11924,6906,8879,114,279,4294967180,15121,4294963903,6171,891,4294967199,311,4294966724,4294966724,4294966724
52936937,6461955,6473938,15526,3653,3163,4294967283,4294966867,4294967245,11981,6825,8999,132,405,4294967110,15205,4294963905,6102,701,4294967166,295,4294966728,4294966728,4294966728
52942962,6462134,6473814,15536,3684,2983,35,4294966985,4294967213,11970,6855,9162,249,463,4294967023,15186,4294963829,6142,558,4294967176,247,4294966710,4294966710,4294966710
52948949,6461446,6473804,15466,3628,2945,17,4294967226,4294967178,11889,6962,9414,355,500,4294966960,15209,4294963815,6161,423,4294967158,199,4294966722,4294966722,4294966722
52954951,6461683,6474232,15463,3593,2903,4294967259,181,4294967110,11936,6985,9443,553,487,4294966912,15180,4294963885,6004,280,4294967079,203,4294966718,4294966718,4294966718
52960952,6462513,6474822,15407,3528,3026,4294967279,471,4294967071,11939,7062,9524,778,437,4294966898,15210,4294963863,5975,187,4294967043,159,4294966721,4294966721,4294966721
52966949,6462668,6474896,15317,3696,3090,4294967193,736,4294967034,11931,7100,9462,921,422,4294966898,15228,4294963930,5976,177,4294967084,113,4294966720,4294966720,4294966720
52972962,6462286,6475177,15286,3662,3193,4294967164,852,4294967034,12003,7206,9406,1087,414,4294966945,15311,4294963950,5742,211,4294967141,91,4294966709,4294966709,4294966709
52978945,6463462,6475582,15217,3754,3346,4294967096,897,4294967073,11996,7245,9214,1212,493,4294966997,15338,4294963906,5712,293,4294967250,130,4294966721,4294966721,4294966721
52984960,6463855,6476037,15190,3705,3508,4294967125,756,4294967135,12010,7327,9147,1331,595,4294967058,15387,4294963789,5772,375,42,107,4294966712,4294966712,4294966712
52990944,6463110,6476019,15254,3785,3616,4294967249,521,4294967198,12108,7398,9137,1303,682,4294967117,15314,4294963707,5954,495,48,62,4294966724,4294966724,4294966724
52996956,6463700,6476054,15261,3830,3854,4294967278,258,4294967285,12093,7433,9321,1243,699,4294967157,15329,4294963618,6005,558,52,35,4294966715,4294966715,4294966715
53002949,6464139,6476184,15340,3858,3876,52,4294967279,83,12142,7426,9306,1186,602,4294967183,15360,4294963593,6017,619,51,33,4294966722,4294966722,4294966722
53008948,6463485,6476421,15384,3908,3887,100,4294967068,150,12268,7425,9394,1010,465,4294967186,15309,4294963722,5841,608,101,60,4294966718,4294966718,4294966718
53014956,6463898,6476765,15422,3844,3797,95,4294966917,186,12260,7358,9480,826,311,4294967218,15284,4294963708,5803,592,171,102,4294966714,4294966714,4294966714
53020962,6464521,6476874,15486,3831,3813,51,4294966872,207,12371,7332,9312,597,181,4294967191,15297,4294963687,5691,538,244,178,4294966713,4294966713,4294966713
53026961,6464244,6476924,15540,3740,3633,4294967238,4294966841,204,12360,7278,9293,426,116,4294967207,15347,4294963687,5678,522,290,252,4294966714,4294966714,4294966714
53032967,6463087,6476546,15612,3729,3537,4294967158,4294966879,153,12370,7327,9375,324,106,4294967202,15445,4294963715,5745,496,313,338,4294966708,4294966708,4294966708
53038946,6463715,6476397,15627,3673,3437,4294967115,4294966934,132,12379,7310,9387,277,118,4294967191,15512,4294963804,5898,433,339,359,4294966720,4294966720,4294966720
53044975,6464203,6476276,15682,3691,3441,4294967104,4294966971,93,12287,7276,9405,266,163,4294967213,15534,4294963785,5965,370,322,394,4294966700,4294966700,4294966700
53050949,6462781,6475523,15711,3680,3485,4294967103,4294966976,54,12302,7249,9445,304,211,4294967206,15548,4294963722,6098,428,256,405,4294966717,4294966717,4294966717
53056956,6463324,6475682,15720,3632,3415,4294967075,4294967003,10,12210,7201,9403,350,288,4294967228,15388,4294963738,5968,495,198,415,4294966717,4294966717,4294966717
53062968,6463608,6475615,15677,3630,3465,4294967048,4294967022,4294967255,12148,7222,9402,448,352,4294967215,15372,4294963762,5989,593,170,419,4294966710,4294966710,4294966710
53068961,6462397,6475090,15601,3617,3407,4294967050,4294967012,4294967185,12066,7160,9380,563,438,4294967234,15298,4294963801,5929,610,193,453,4294966710,4294966710,4294966710
53074955,6462949,6475202,15622,3555,3463,4294967061,4294967069,4294967156,12040,7192,9330,758,544,4294967224,15266,4294963851,5990,543,248,433,4294966717,4294966717,4294966717
53080977,6463028,6474318,15592,3636,3525,4294967056,4294967100,4294967080,11983,7171,9365,962,556,4294967236,15252,4294963936,5880,548,251,421,4294966702,4294966702,4294966702
53086958,6461830,6473648,15538,3619,3485,4294967050,4294967172,4294967041,12007,7171,9311,1128,627,4294967235,15230,4294963920,5959,524,309,405,4294966715,4294966715,4294966715
53092951,6461480,6473579,15485,3639,3468,4294967055,4294967213,4294966996,11981,7199,9350,1205,684,4294967250,15166,4294963904,5932,543,334,383,4294966719,4294966719,4294966719
53098964,6462273,6473576,15406,3640,3499,4294967011,4294967244,4294966967,11963,7244,9255,1238,749,4294967289,15164,4294963866,5860,584,336,400,4294966709,4294966709,4294966709
53104946,6462242,6473569,15340,3627,3487,4294966988,4294967281,4294966958,12048,7266,9148,1192,748,22,15177,4294963834,5872,585,349,412,4294966722,4294966722,4294966722
53110955,6460348,6472601,15256,3591,3492,4294966995,13,4294966970,11992,7295,9088,1162,692,4294967294,15217,4294963824,6011,513,324,386,4294966715,4294966715,4294966715
53116963,6461710,6473196,15150,3563,3508,4294967013,4294967285,4294966977,12001,7271,9196,1021,616,22,15251,4294963795,5809,424,310,390,4294966711,4294966711,4294966711
53122953,6462316,6472955,15167,3518,3455,4294967070,4294967237,4294966990,12062,7190,9313,935,513,68,15253,4294963902,5609,342,369,417,4294966718,4294966718,4294966718
53128949,6461609,6473130,15197,3517,3549,4294967152,4294967179,4294966991,12023,7226,9364,985,437,50,15226,4294963842,5627,297,430,401,4294966720,4294966720,4294966720
53134965,6461316,6472894,15257,3498,3454,4294967193,4294967077,4294967004,11970,7341,9386,1078,327,79,15201,4294963866,5714,323,410,419,4294966709,4294966709,4294966709
53140955,6462024,6472726,15296,3449,3454,4294967271,4294966962,4294967062,11895,7479,9227,995,232,119,15282,4294963919,6066,321,334,393,4294966717,4294966717,4294966717
53146951,6461163,6472516,15300,3488,3406,4294967267,4294966857,4294967102,11886,7493,9276,905,175,127,15145,4294963838,6037,345,329,403,4294966719,4294966719,4294966719
53152944,6460742,6472597,15379,3431,3334,13,4294966825,4294967170,11937,7455,9310,780,120,134,15142,4294963858,5895,358,376,397,4294966725,4294966725,4294966725
53158950,6462018,6472832,15381,3483,3264,11,4294966858,4294967187,11870,7389,9294,703,98,118,14980,4294963972,5952,339,412,422,4294966723,4294966723,4294966723
53164948,6462017,6473305,15423,3495,3307,4294967267,4294966923,4294967200,11889,7394,9214,675,126,116,14976,4294964017,6043,257,457,503,4294966719,4294966719,4294966719
53170944,6461207,6473087,15469,3461,3281,4294967202,4294967023,4294967184,11854,7297,9214,692,172,141,14921,4294963961,5997,238,513,572,4294966725,4294966725,4294966725
53176972,6461510,6473039,15492,3382,3366,4294967115,4294967095,4294967144,11865,7309,9375,764,271,133,14742,4294963936,6123,237,490,582,4294966708,4294966708,4294966708
53182955,6462093,6473097,15482,3388,3551,4294967022,4294967181,4294967077,11775,7308,9431,858,301,160,14711,4294963870,6169,266,406,629,4294966713,4294966713,4294966713
53188944,6461401,6473311,15464,3320,3541,4294966938,4294967243,4294967028,11708,7352,9469,910,310,171,14765,4294963897,6208,390,343,701,4294966725,4294966725,4294966725
53194955,6460903,6472893,15492,3413,3544,4294966871,4294967259,4294966977,11712,7400,9522,997,334,148,14854,4294963947,6151,386,332,691,4294966715,4294966715,4294966715
53200970,6462041,6473120,15457,3402,3552,4294966860,4294967280,4294966957,11739,7357,9417,1036,387,172,14845,4294963940,6114,337,347,708,4294966705,4294966705,4294966705
53206959,6461418,6472884,15458,3508,3454,4294966828,4294967285,4294966952,11717,7341,9467,1079,420,150,14903,4294963935,5973,172,345,753,4294966712,4294966712,4294966712
53212960,6460791,6472733,15437,3659,3432,4294966856,4294967286,4294967009,11733,7365,9276,1130,503,109,14961,4294963984,6030,4294967285,310,763,4294966716,4294966716,4294966716
53218970,6462094,6473169,15429,3690,3460,4294966926,1,4294967048,11727,7351,9192,1159,602,81,15029,4294963966,6047,4294967065,283,766,4294966708,4294966708,4294966708
53224941,6461836,6473181,15458,3785,3432,4294967029,3,4294967150,11714,7442,9224,1283,687,99,14966,4294963891,6195,4294967045,169,792,4294966726,4294966726,4294966726
53230958,6461044,6473334,15489,3822,3426,4294967138,2,4294967246,11745,7533,9243,1288,770,99,15058,4294963893,6255,4294967092,22,792,4294966714,4294966714,4294966714
53236968,6461882,6473243,15449,3828,3471,4294967222,4294967289,20,11669,7592,9286,1326,757,83,15127,4294963904,6202,4294967084,4294967188,776,4294966709,4294966709,4294966709
53242951,6462332,6473198,15443,3858,3420,4294967277,4294967272,94,11695,7547,9348,1291,753,80,15193,4294963923,6303,4294967077,4294967151,787,4294966722,4294966722,4294966722
53248956,6460880,6472887,15329,3823,3441,20,4294967294,163,11710,7455,9387,1327,691,50,15089,4294963792,6315,4294967208,4294967026,793,4294966715,4294966715,4294966715
53254953,6460973,6473061,15347,3792,3436,4294967290,4294967272,190,11703,7396,9396,1314,699,69,15273,4294963720,6208,4294967256,4294966949,750,4294966721,4294966721,4294966721
53260955,6462060,6472851,15327,3780,3341,4294967254,4294967238,229,11726,7416,9353,1304,717,15,15309,4294963676,6264,4294967282,4294966963,689,4294966716,4294966716,4294966716
53266961,6461702,6472913,15319,3712,3305,4294967259,4294967203,243,11771,7443,9388,1304,699,4294967294,15314,4294963627,6225,56,4294966990,651,4294966714,4294966714,4294966714
53272962,6460694,6472823,15302,3773,3287,28,4294967157,255,11744,7373,9421,1020,713,4294967158,15265,4294963645,6201,60,4294967059,602,4294966712,4294966712,4294966712
53278946,6462299,6473291,15292,3756,3218,40,4294967141,249,11745,7377,9389,1197,621,4294967112,15351,4294963708,6016,49,4294967125,563,4294966724,4294966724,4294966724
53284960,6462444,6473484,15307,3780,3251,48,4294967162,260,11766,7479,9364,1387,542,4294967175,15312,4294963725,6005,4294967285,4294967239,559,4294966717,4294966717,4294966717
53290940,6461182,6473456,15249,3821,3282,34,4294967187,242,11859,7511,9325,1220,580,4294967131,15347,4294963783,6036,4294967222,68,576,4294966727,4294966727,4294966727
53296953,6461870,6473327,15312,3845,3280,5,4294967216,255,11848,7579,9361,1256,554,4294967168,15326,4294963770,6016,4294967174,119,558,4294966719,4294966719,4294966719
53302948,6462435,6473659,15303,3839,3378,4294967279,4294967260,252,11940,7595,9195,1327,535,4294967186,15339,4294963670,6042,4294967125,118,546,4294966722,4294966722,4294966722
53308943,6460957,6473386,15325,3787,3309,4294967218,4294967236,267,11975,7606,9175,1292,551,4294967153,15297,4294963559,5987,4294967208,91,507,4294966725,4294966725,4294966725
53314951,6461438,6473338,15366,3848,3474,4294967172,4294967199,243,12014,7564,9143,1270,521,4294967188,15289,4294963470,6034,75,40,475,4294966721,4294966721,4294966721
53320938,6462159,6473080,15393,3742,3486,4294967156,4294967127,232,12175,7647,9174,1341,497,4294967186,15261,4294963497,6026,209,41,355,4294966728,4294966728,4294966728
53326953,6461663,6473008,15425,3756,3483,4294967133,4294967048,204,12113,7533,9087,1331,457,4294967220,15225,4294963552,6078,445,4294967271,348,4294966715,4294966715,4294966715
53332943,6460584,6472815,15459,3712,3544,4294967113,4294967006,157,12171,7532,9108,1414,398,4294967292,15277,4294963600,6082,630,4294967212,328,4294966722,4294966722,4294966722
53338934,6461994,6473333,15480,3632,3488,4294967076,4294966961,138,12241,7585,9031,1427,329,0,15421,4294963643,5973,684,4294967195,260,4294966729,4294966729,4294966729
53344953,6462092,6472893,15562,3586,3519,4294967021,4294966928,90,12268,7552,8880,1305,269,26,15361,4294963596,5951,544,4294967216,283,4294966718,4294966718,4294966718
53350957,6461077,6473191,15572,3472,3590,4294966947,4294966902,37,12373,7595,8768,1287,240,66,15287,4294963437,5896,543,4294967153,268,4294966715,4294966715,4294966715
53356961,6462033,6473524,15586,3352,3582,4294966866,4294966867,4294967255,12438,7548,8726,1055,290,78,15256,4294963252,5706,400,4294967078,287,4294966713,4294966713,4294966713
53362954,6462492,6473240,15613,3316,3555,4294966852,4294966821,4294967192,12530,7506,8788,1234,218,133,15159,4294963024,5626,187,4294966983,210,4294966718,4294966718,4294966718
53368955,6460720,6472658,15638,3208,3580,4294966855,4294966738,4294967136,12564,7535,8758,1326,167,216,15291,4294962985,5501,79,4294966912,165,4294966715,4294966715,4294966715
53374950,6460938,6472640,15675,3150,3561,4294966849,4294966663,4294967033,12637,7458,8816,1306,161,252,15300,4294963075,5422,4294967195,4294966794,136,4294966721,4294966721,4294966721
53380953,6462101,6472670,15682,3136,3501,4294966882,4294966640,4294966929,12547,7445,8814,1438,110,316,15468,4294963437,5155,4294967107,4294966796,225,4294966716,4294966716,4294966716
53386944,6461233,6472874,15742,3082,3479,4294966924,4294966638,4294966823,12557,7421,8850,1492,107,330,15718,4294963864,5033,4294967149,4294966914,406,4294966725,4294966725,4294966725
53392953,6461104,6472738,15719,3073,3429,4294966987,4294966721,4294966749,12465,7409,8853,1526,134,355,15873,4294964083,4918,116,4294967105,684,4294966719,4294966719,4294966719
53398958,6462028,6472413,15773,3043,3288,4294967110,4294966835,4294966669,12350,7430,8849,1560,226,367,15842,4294964171,5104,498,23,1026,4294966716,4294966716,4294966716
53404958,6461771,6472272,15764,3059,3255,4294967286,4294966989,4294966607,12189,7428,8890,1713,367,347,15677,4294964107,5230,610,151,1132,4294966715,4294966715,4294966715
53410964,6460132,6471842,15666,3184,3148,121,4294967140,4294966573,12045,7584,8876,1730,543,308,15711,4294963799,5306,673,218,1224,4294966709,4294966709,4294966709
53416948,6461064,6472211,15632,3286,3125,223,4294967272,4294966548,12088,7682,8788,1697,719,286,15686,4294963665,5503,943,410,1296,4294966718,4294966718,4294966718
53422962,6461816,6472449,15532,3333,3082,283,76,4294966547,12011,7712,8727,1301,899,272,15401,4294963517,5624,744,355,1049,4294966713,4294966713,4294966713
53428956,6460662,6473295,15508,3509,3161,293,160,4294966556,11819,7700,8809,1402,926,211,15546,4294963456,5530,843,317,845,4294966716,4294966716,4294966716
53434952,6461649,6473914,15437,3547,3141,316,166,4294966586,11896,7835,8903,1285,1113,223,15582,4294963504,5595,855,461,754,4294966719,4294966719,4294966719
53440971,6464266,6474948,15355,3610,3181,253,146,4294966638,11641,7614,8995,1369,1063,144,15471,4294963554,5566,920,699,813,4294966707,4294966707,4294966707
53446945,6466377,6477406,15282,3665,3182,263,121,4294966743,11693,7727,9041,1335,1040,116,15128,4294963549,5742,744,778,400,4294966724,4294966724,4294966724
53452944,6467155,6480918,15225,3650,3237,177,14,4294966818,11729,7814,9148,1236,969,62,15163,4294963419,5890,696,746,168,4294966725,4294966725,4294966725
53458950,6464726,6476041,15211,3708,3359,168,4294967180,4294966875,11635,7782,9212,1249,860,72,14953,4294963593,5885,697,777,70,4294966717,4294966717,4294966717
53464955,6460131,6468420,15137,3735,3508,57,4294967031,4294966923,11624,7860,9271,1282,709,72,15118,4294963717,5761,388,783,4294967205,4294966716,4294966716,4294966716
53470949,6456323,6465660,15123,3718,3593,4294967284,4294966857,4294966970,11551,7819,9568,1093,554,71,15143,4294963859,5786,53,836,4294967058,4294966722,4294966722,4294966722
53476939,6456865,6466813,15129,3641,3650,4294967198,4294966629,4294966974,11591,7790,9721,919,437,29,14867,4294963836,5712,4294967247,726,4294967124,4294966728,4294966728,4294966728
53482966,6459163,6468745,15159,3559,3617,4294967100,4294966393,4294966980,11407,7704,9783,830,358,4294967283,15071,4294963948,5643,4294967029,546,4294967139,4294966710,4294966710,4294966710
53488959,6458995,6470150,15121,3555,3452,4294966986,4294966173,4294966979,11315,7620,9695,779,173,4294967180,15014,4294963898,5797,4294966921,442,4294967110,4294966712,4294966712,4294966712
53494946,6459799,6471797,15186,3528,3453,4294966994,4294965958,4294967030,11370,7722,9731,607,56,4294967101,15028,4294963840,5913,4294966828,365,4294967138,4294966722,4294966722,4294966722
53500973,6461677,6472639,15247,3567,3223,4294967102,4294965801,4294967104,11197,7585,9761,517,130,4294967009,15199,4294963799,5765,4294966658,353,4294967064,4294966707,4294966707,4294966707
53506969,6461210,6472692,15257,3733,2983,120,4294965718,4294967232,11200,7604,9739,626,337,4294966881,15134,4294963644,6023,4294966488,283,4294967104,4294966709,4294966709,4294966709
53512948,6460513,6472677,15321,3909,2977,330,4294965770,102,11103,7626,9663,572,441,4294966734,15241,4294963618,6081,4294966349,4294967254,4294967108,4294966723,4294966723,4294966723
53518941,6462142,6472902,15345,4035,3063,426,4294965983,253,11128,7643,9696,487,445,4294966602,15333,4294963445,6164,4294966339,4294967000,4294967025,4294966726,4294966726,4294966726
53524962,6461974,6473019,15249,4100,3126,485,4294966173,460,11245,7575,9842,499,407,4294966490,15357,4294963325,6195,4294966231,4294966827,4294966970,4294966713,4294966713,4294966713
53530938,6460848,6473178,15151,4240,3197,401,4294966335,608,11253,7668,10143,687,378,4294966366,15310,4294963345,6335,4294966232,4294966620,4294966776,4294966724,4294966724,4294966724
53536947,6461882,6472965,15116,4303,3391,368,4294966497,741,11276,7625,10246,813,206,4294966295,15218,4294963254,6540,4294966354,4294966441,4294966610,4294966721,4294966721,4294966721
53542941,6462222,6472967,15047,4340,3365,198,4294966494,899,11200,7762,10130,802,70,4294966266,15110,4294963207,6663,4294966619,4294966318,4294966521,4294966727,4294966727,4294966727
53548953,6461035,6473084,15184,4446,3446,196,4294966488,1090,11313,7819,9866,552,4294967225,4294966216,14980,4294963228,6600,4294966835,4294966273,4294966402,4294966714,4294966714,4294966714
53554942,6461282,6473414,15253,4391,3132,139,4294966463,1290,11382,7796,9539,248,4294967225,4294966101,14748,4294963255,6530,4294967004,4294966316,4294966413,4294966726,4294966726,4294966726
53560947,6462438,6473330,15403,4411,3123,251,4294966483,1430,11337,7626,9395,163,4294967024,4294966124,14578,4294963285,6501,4294967007,4294966454,4294966472,4294966721,4294966721,4294966721
53566971,6462007,6473592,15449,4386,3095,253,4294966557,1528,11399,7534,9417,79,4294966939,4294966139,14430,4294963332,6549,4294966917,4294966664,4294966541,4294966707,4294966707,4294966707
53572958,6460780,6473512,15541,4325,3108,133,4294966724,1530,11337,7558,9380,227,4294966640,4294966174,14427,4294963315,6542,4294966750,4294966945,4294966655,4294966715,4294966715,4294966715
53578971,6462244,6473988,15615,4122,3145,4294967228,4294967023,1515,11483,7637,9383,232,4294966515,4294966095,14318,4294963292,6625,4294966626,4294967194,4294966750,4294966707,4294966707,4294966707
53586955,6461110,6473433,15564,3771,3337,4294966842,61,1282,11489,7672,9531,431,4294966365,4294966135,14352,4294963384,6612,4294966452,18,4294966861,4294966717,4294966717,4294966717
53592952,6461433,6474435,15601,3576,3379,4294966523,329,1056,11433,7705,9390,643,4294966262,4294966122,14424,4294963580,6463,4294966356,4294967234,4294966877,4294966716,4294966716,4294966716
53598966,6462789,6474458,15457,3530,3473,4294966269,533,826,11518,7801,9405,714,4294966232,4294966182,14584,4294963572,6366,4294966344,4294967139,4294966942,4294966709,4294966709,4294966709
53604944,6462776,6474566,15344,3430,3558,4294966054,554,687,11427,7772,9416,668,4294966231,4294966092,14664,4294963532,6270,4294966364,4294966975,4294967004,4294966724,4294966724,4294966724
53610963,6461457,6475010,15199,3364,3775,4294965927,479,569,11445,7640,9358,650,4294966258,4294966212,14794,4294963650,6129,4294966462,4294966782,4294967010,4294966710,4294966710,4294966710
53616952,6462412,6475565,15118,3369,3744,4294965968,291,557,11507,7755,9369,761,4294966205,4294966305,14859,4294963566,6173,4294966588,4294966594,4294967060,4294966719,4294966719,4294966719
53622957,6463141,6475461,14981,3401,3824,4294966038,4294967281,570,11677,7806,9387,785,4294966246,4294966442,14876,4294963429,6207,4294966779,4294966466,4294967117,4294966716,4294966716,4294966716
53630953,6461398,6475028,14832,3628,3900,4294966258,4294966755,638,11772,7783,9453,1004,4294965878,4294966791,14738,4294963232,6449,4294966967,4294966288,4294967165,4294966721,4294966721,4294966721
53638952,6463471,6476355,15207,3701,3837,4294966239,4294966238,739,11911,7867,9579,1047,4294965932,4294966977,14575,4294963190,6538,4294967116,4294966198,4294967218,4294966719,4294966719,4294966719
53646951,6462509,6475334,15007,3691,3858,4294966598,4294966218,1000,11933,7927,9718,981,4294965858,4294967124,14501,4294963256,6617,4294967196,4294966155,4294967250,4294966716,4294966716,4294966716
53654946,6462344,6476092,15140,3718,3951,4294966735,4294966071,1143,12006,7911,9635,809,4294965784,45,14579,4294963268,6505,4294967228,4294966151,39,4294966720,4294966720,4294966720
53660949,6463960,6476840,15195,3733,3885,4294966631,4294966039,1114,11940,7947,9621,695,4294965652,220,14792,4294963264,6494,4294967256,4294966173,115,4294966719,4294966719,4294966719
53666952,6462771,6475858,15227,3567,3820,4294966602,4294966073,1103,11918,7916,9639,550,4294965611,347,14888,4294963366,6493,4294967257,4294966143,193,4294966721,4294966721,4294966721
53672960,6461645,6475513,15221,3538,3741,4294966537,4294966144,1033,11785,7851,9568,481,4294965593,415,15008,4294963351,6528,23,4294966025,235,4294966712,4294966712,4294966712
53678953,6462981,6475455,15388,3459,3671,4294966517,4294966219,953,11729,7816,9624,464,4294965640,472,15094,4294963357,6595,86,4294965840,293,4294966718,4294966718,4294966718
53684946,6462737,6475366,15425,3443,3551,4294966559,4294966286,871,11708,7807,9515,507,4294965704,515,15099,4294963376,6588,171,4294965669,344,4294966721,4294966721,4294966721
53690955,6461058,6475015,15400,3488,3607,4294966595,4294966284,751,11543,7777,9484,586,4294965786,554,15090,4294963428,6700,245,4294965517,397,4294966717,4294966717,4294966717
53696943,6461817,6474871,15425,3546,3625,4294966584,4294966303,666,11603,7748,9443,693,4294965839,563,15089,4294963382,6809,324,4294965350,416,4294966726,4294966726,4294966726
53702949,6462376,6474856,15449,3693,3572,4294966566,4294966310,603,11601,7790,9446,825,4294965887,542,15054,4294963415,6717,450,4294965265,460,4294966720,4294966720,4294966720
53708941,6460756,6474248,15419,3784,3627,4294966549,4294966408,595,11555,7798,9503,949,4294965898,593,15099,4294963479,6706,522,4294965178,470,4294966724,4294966724,4294966724
53714945,6460932,6473813,15424,3892,3646,4294966602,4294966445,613,11564,7753,9531,1100,4294965881,582,14922,4294963477,6739,604,4294965154,512,4294966720,4294966720,4294966720
53720953,6461736,6473299,15352,4032,3790,4294966641,4294966430,676,11531,7777,9576,1200,4294965855,602,14899,4294963403,6834,643,4294965131,466,4294966718,4294966718,4294966718
53726956,6461266,6473241,15245,4039,3785,4294966702,4294966380,769,11522,7710,9587,1268,4294965815,611,14848,4294963433,6588,638,4294965149,436,4294966715,4294966715,4294966715
53732950,6460433,6473615,15237,4021,3782,4294966747,4294966270,864,11512,7650,9691,1322,4294965788,593,14894,4294963510,6477,573,4294965195,414,4294966722,4294966722,4294966722
53738955,6461622,6473640,15138,4014,3834,4294966788,4294966136,975,11468,7699,9724,1359,4294965716,604,14926,4294963582,6452,381,4294965232,416,4294966717,4294966717,4294966717
53744955,6461704,6473476,15101,3936,3827,4294966798,4294965965,1079,11490,7674,9688,1383,4294965647,576,14993,4294963579,6293,200,4294965250,445,4294966716,4294966716,4294966716
53750947,6459995,6473416,15097,3820,3730,4294966790,4294965770,1143,11530,7647,9594,1416,4294965574,534,15021,4294963595,6118,4294967291,4294965247,427,4294966724,4294966724,4294966724
53756963,6461017,6473474,15119,3699,3618,4294966760,4294965614,1179,11472,7571,9555,1377,4294965511,479,15066,4294963621,5897,4294967144,4294965257,426,4294966712,4294966712,4294966712
53762948,6461925,6473445,15121,3651,3598,4294966733,4294965435,1239,11478,7470,9738,1443,4294965473,407,15082,4294963618,5703,4294967173,4294965249,378,4294966723,4294966723,4294966723
53768948,6460963,6473622,15216,3659,3413,4294966773,4294965316,1322,11396,7504,9697,1571,4294965463,370,15174,4294963612,5820,4294967267,4294965233,432,4294966723,4294966723,4294966723
53774950,6461300,6473878,15302,3660,3277,4294966755,4294965254,1403,11364,7613,9533,1715,4294965498,288,15300,4294963662,6053,14,4294965101,298,4294966723,4294966723,4294966723
53780958,6462356,6473834,15410,3677,3202,4294966848,4294965174,1538,11408,7758,9414,1878,4294965544,271,15348,4294963663,6109,106,4294964959,194,4294966711,4294966711,4294966711
53786957,6461197,6474164,15422,3681,3140,4294966931,4294965105,1706,11374,7812,9247,1961,4294965552,228,15316,4294963626,5933,185,4294964962,75,4294966719,4294966719,4294966719
53792939,6460458,6473659,15481,3760,2980,4294967083,4294965226,1831,11540,7839,9226,1936,4294965473,219,15327,4294963630,5844,234,4294964982,4294967218,4294966725,4294966725,4294966725
53798949,6461771,6473593,15475,3688,2998,4294967114,4294965303,1974,11596,7878,9178,1966,4294965453,145,15261,4294963684,5785,154,4294964989,4294967125,4294966722,4294966722,4294966722
53804954,6461913,6473874,15461,3740,2903,4294967161,4294965419,2092,11608,7831,9084,1986,4294965377,99,15334,4294963703,5731,73,4294965015,4294967034,4294966717,4294966717,4294966717
53810943,6460217,6473497,15471,3669,2794,4294967121,4294965588,2208,11659,7827,8894,1832,4294965252,29,15315,4294963671,5648,4294967265,4294965078,4294966938,4294966725,4294966725,4294966725
53816966,6460374,6473213,15375,3638,2859,4294967196,4294965751,2311,11688,7744,8815,1737,4294965146,4294967282,15333,4294963626,5552,4294967208,4294965061,4294966874,4294966711,4294966711,4294966711
53824948,6461141,6473271,15390,3471,2961,4294967082,4294965773,2374,11734,7817,8744,1617,4294965083,4294967218,15292,4294963597,5443,4294967131,4294965013,4294966746,4294966718,4294966718,4294966718
53832967,6460458,6474007,15259,3312,2861,4294966995,4294965708,2426,11758,7919,8674,1528,4294964975,4294967191,15372,4294963598,5399,4294967066,4294965009,4294966628,4294966708,4294966708,4294966708
53840967,6462048,6473944,15145,3159,2927,4294966875,4294965469,2441,11862,7911,8584,1486,4294964888,4294967186,15327,4294963576,5160,4294966975,4294964908,4294966550,4294966708,4294966708,4294966708
53848947,6460027,6473279,15142,2982,2909,4294966871,4294965175,2412,11946,7941,8512,1516,4294964797,4294967183,15457,4294963605,5084,4294966933,4294964846,4294966546,4294966720,4294966720,4294966720
53856952,6460981,6473537,15245,2847,2860,4294967139,4294964803,2422,11965,7973,8418,1585,4294964724,4294967210,15529,4294963656,4948,4294966945,4294964808,4294966529,4294966716,4294966716,4294966716
53864949,6461312,6473615,15215,2896,2885,4294967181,4294964466,2377,11962,8031,8350,1572,4294964678,4294967217,15584,4294963756,4946,4294966981,4294964747,4294966539,4294966721,4294966721,4294966721
53872929,6460410,6474017,15462,2952,2779,4294967267,4294964281,2487,11968,8148,8408,1586,4294964612,4294967200,15572,4294963778,4998,4294966960,4294964711,4294966634,4294966732,4294966732,4294966732
53880952,6461704,6473418,15686,3025,2702,34,4294964252,2610,11885,8173,8574,1534,4294964570,4294967148,15606,4294963803,4961,4294966930,4294964644,4294966632,4294966716,4294966716,4294966716
53886942,6460423,6473658,15853,2916,2494,0,4294964288,2725,11839,8199,8603,1506,4294964620,4294967098,15600,4294963722,4860,4294966899,4294964595,4294966649,4294966723,4294966723,4294966723
53892940,6459866,6473314,15928,2919,2615,4294967264,4294964414,2898,11863,8163,8484,1444,4294964676,4294967056,15538,4294963783,4869,4294966852,4294964598,4294966702,4294966727,4294966727,4294966727
53900954,6461450,6473378,16112,2811,2514,4294967104,4294964622,3038,11856,8132,8370,1286,4294964750,4294966934,15483,4294963850,4801,4294966806,4294964673,4294966689,4294966717,4294966717,4294966717
53908950,6459835,6473290,16135,2542,2512,4294967051,4294964847,3118,11769,8122,8147,1158,4294964857,4294966821,15366,4294963816,4746,4294966782,4294964805,4294966719,4294966722,4294966722,4294966722
53916942,6460705,6474028,16135,2469,2341,4294967171,4294965097,3216,11767,8060,8079,1122,4294964911,4294966688,15271,4294963860,4577,4294966870,4294965023,4294966762,4294966727,4294966727,4294966727
53924945,6461151,6473511,16078,2335,2296,4294967178,4294965434,3182,11671,8008,7911,1106,4294964993,4294966631,15200,4294963823,4543,4294966847,4294965061,4294966760,4294966721,4294966721,4294966721
53932951,6460289,6474068,15943,2204,2329,159,4294965560,3267,11749,8017,7799,1189,4294964946,4294966555,15147,4294963820,4524,4294966787,4294965096,4294966728,4294966717,4294966717,4294966717
53938958,6461977,6474848,15822,2208,2230,282,4294965730,3308,11847,7987,7686,1132,4294965009,4294966455,15223,4294963754,4419,4294966698,4294965043,4294966682,4294966717,4294966717,4294966717
53946939,6460108,6472975,15555,2249,2433,120,4294965826,3333,11839,8166,7517,1300,4294964769,4294966269,15197,4294963699,4417,4294966562,4294964872,4294966580,4294966728,4294966728,4294966728
53952966,6460008,6473782,15648,2173,2308,83,4294965936,3380,12113,8019,7393,1156,4294964832,4294966226,15271,4294963701,4243,4294966418,4294964736,4294966528,4294966709,4294966709,4294966709
53958960,6460908,6473418,15647,2108,2417,61,4294965983,3446,12149,7915,7378,1327,4294964709,4294966385,15457,4294963695,4288,4294966323,4294964483,4294966488,4294966714,4294966714,4294966714
53964952,6460597,6473463,15651,2038,2307,34,4294965958,3508,12275,8144,7428,1328,4294964774,4294966318,15518,4294963739,4242,4294966259,4294964270,4294966463,4294966719,4294966719,4294966719
53970951,6459437,6473495,15561,2063,2424,4294967237,4294965901,3629,12342,8136,7418,1362,4294964607,4294966313,15605,4294963744,4123,4294966253,4294964038,4294966443,4294966721,4294966721,4294966721
53978957,6460915,6473841,15641,1905,2406,4294967135,4294965743,3846,12524,8268,7419,1494,4294964329,4294966387,15715,4294963760,4152,4294966248,4294963725,4294966434,4294966716,4294966716,4294966716
53986956,6459699,6473269,15747,1773,2434,4294967006,4294965709,3903,12519,8298,7357,1534,4294964126,4294966493,15756,4294963729,4117,4294966313,4294963580,4294966473,4294966717,4294966717,4294966717
53994947,6459931,6474180,15784,1599,2399,4294967062,4294965572,3910,12622,8376,7263,1578,4294963966,4294966581,15761,4294963770,4074,4294966484,4294963449,4294966503,4294966721,4294966721,4294966721
54002957,6460681,6473208,15917,1525,2339,4294966868,4294965422,3840,12694,8370,7216,1500,4294963826,4294966701,15760,4294963727,3985,4294966671,4294963371,4294966497,4294966713,4294966713,4294966713
54010953,6459851,6473990,15949,1407,2211,4294966895,4294965363,3751,12693,8400,7136,1372,4294963681,4294966814,15660,4294963706,3851,4294966830,4294963377,4294966520,4294966715,4294966715,4294966715
54018964,6460922,6473490,15874,1434,2334,4294966725,4294965395,3548,12774,8316,7109,1276,4294963477,4294966910,15643,4294963620,3790,4294967082,4294963394,4294966610,4294966712,4294966712,4294966712
54026960,6461404,6474371,15994,1457,2278,4294966624,4294965488,3419,12841,8281,7035,1292,4294963411,4294966989,15665,4294963744,3643,4294967159,4294963478,4294966596,4294966712,4294966712,4294966712
54034948,6459840,6473451,16004,1504,2269,4294966542,4294965455,3212,12942,8314,7055,1340,4294963439,4294967063,15760,4294963778,3571,4294967079,4294963603,4294966597,4294966716,4294966716,4294966716
54042980,6460227,6472745,15957,1547,2338,4294966461,4294965409,3010,12989,8296,6984,1344,4294963447,4294967170,15765,4294963851,3385,4294966990,4294963694,4294966635,4294966700,4294966700,4294966700
54050939,6459289,6473157,15951,1602,2289,4294966260,4294965305,2844,12931,8276,6950,1303,4294963381,4294967256,15814,4294963849,3338,4294966900,4294963812,4294966714,4294966727,4294966727,4294966727
54058961,6460273,6472709,15897,1735,2275,4294965963,4294965119,2606,12939,8163,6803,1176,4294963285,4294967245,15806,4294963872,3373,4294966837,4294963794,4294966753,4294966711,4294966711,4294966711
54066959,6460472,6473381,15923,1915,2246,4294965715,4294964983,2318,12879,8217,6595,1079,4294963247,4294967270,15799,4294963773,3359,4294966776,4294963824,4294966777,4294966712,4294966712,4294966712
54074974,6459797,6473126,15994,1775,2114,4294965610,4294964978,2148,12908,8136,6579,1037,4294963332,4294967280,15967,4294963767,3232,4294966756,4294963859,4294966819,4294966705,4294966705,4294966705
54082967,6461281,6473902,16118,1626,2076,4294965519,4294964927,2096,12857,8141,6468,1105,4294963407,4294967291,15802,4294963766,3375,4294966544,4294964167,4294966958,4294966709,4294966709,4294966709
54090951,6458832,6472751,16177,1412,2060,4294965452,4294965038,2059,12887,8155,6426,1275,4294963526,4294967262,15674,4294963910,3209,4294966359,4294963951,4294966898,4294966721,4294966721,4294966721
54098947,6459790,6473829,16250,1149,1999,4294965252,4294965319,1985,12807,8171,6316,1469,4294963563,4294967244,15569,4294963905,3120,4294966332,4294963938,4294966967,4294966723,4294966723,4294966723
54106940,6460270,6474485,16302,1102,1960,4294965124,4294965535,1997,12780,8244,6198,1582,4294963690,4294967208,15542,4294963959,2999,4294966317,4294963858,4294966984,4294966724,4294966724,4294966724
54114954,6462971,6475858,16407,651,1814,4294965172,4294965809,2122,12775,8335,6070,1695,4294963773,4294967181,15668,4294963945,2771,4294966486,4294963787,4294967034,4294966717,4294966717,4294966717
54122942,6467268,6479333,16270,603,1934,4294965292,4294966027,2248,12842,8385,5903,1775,4294963863,4294967179,15823,4294963957,2537,4294966522,4294963817,4294967039,4294966724,4294966724,4294966724
54130948,6463671,6478471,15944,644,1930,4294965231,4294966174,2344,12986,8497,5839,1661,4294963902,4294967214,16030,4294963891,2364,4294966461,4294963823,4294967042,4294966722,4294966722,4294966722
54138954,6461175,6472203,16490,571,2134,4294965414,4294965805,2703,13091,8585,5808,1671,4294963906,4294967197,16268,4294963850,2222,4294966361,4294963881,4294967054,4294966715,4294966715,4294966715
54146944,6456409,6468606,16304,498,1929,4294965649,4294966196,2583,13193,8647,6022,1556,4294963794,4294967261,16390,4294963867,2131,4294966313,4294963911,4294967073,4294966726,4294966726,4294966726
54154952,6456822,6471407,16098,718,1952,4294965703,4294965761,2708,13280,8666,5936,1389,4294963580,4294967289,16513,4294963979,2199,4294966295,4294963981,4294967133,4294966717,4294966717,4294966717
54162956,6459490,6472540,16257,553,1749,4294965834,4294965776,2803,13270,8705,5602,1137,4294963487,4294967254,16466,4294964005,2119,4294966290,4294964045,4294967129,4294966715,4294966715,4294966715
54170966,6459113,6473982,16213,725,1676,4294965708,4294965462,2886,13330,8709,5530,941,4294963403,4294967282,16352,4294964030,2023,4294966369,4294964100,4294967115,4294966710,4294966710,4294966710
54178960,6460786,6474948,16306,496,1492,4294965844,4294965392,2956,13292,8661,5365,888,4294963619,4294967271,16246,4294964074,1844,4294966649,4294964108,4294967166,4294966717,4294966717,4294966717
54186963,6459901,6474499,16245,599,1293,4294966839,4294965325,3029,13140,8611,5175,1053,4294963800,51,16259,4294964172,1945,4294966758,4294964021,4294967218,4294966712,4294966712,4294966712
54192950,6459916,6475288,15923,599,1691,4294966131,4294965266,2947,13203,8484,5106,1120,4294963703,45,16222,4294964223,1769,4294966747,4294963976,4294967255,4294966722,4294966722,4294966722
54198947,6460826,6474894,15782,432,1886,4294965607,4294965266,2907,13247,8430,5160,1074,4294963624,43,16253,4294964256,1699,4294966770,4294964014,4294967256,4294966721,4294966721,4294966721
54204953,6461031,6475209,15815,160,1785,4294965601,4294965257,2878,13410,8428,5278,1142,4294963636,21,16191,4294964271,1595,4294966691,4294964030,5,4294966716,4294966716,4294966716
54210938,6459725,6474935,15792,164,1822,4294965476,4294965085,2804,13326,8426,5414,1244,4294963587,36,16177,4294964293,1622,4294966709,4294963992,4294967291,4294966727,4294966727,4294966727
54216959,6460188,6475154,16039,49,1807,4294965544,4294964969,2756,13320,8500,5413,1341,4294963556,84,16111,4294964165,1587,4294966826,4294963944,4294967271,4294966715,4294966715,4294966715
54222955,6461657,6475688,16153,57,1676,4294965607,4294964862,2715,13276,8427,5249,1373,4294963595,156,16103,4294964211,1558,4294966955,4294963878,4294967237,4294966718,4294966718,4294966718
54228964,6460586,6475833,16135,37,1468,4294965794,4294964724,2719,13333,8443,5033,1407,4294963721,250,16162,4294964285,1456,4294967015,4294963835,4294967220,4294966710,4294966710,4294966710
54234945,6460912,6476370,16364,4294967293,1126,4294966065,4294964663,2678,13365,8443,4938,1451,4294963756,254,16276,4294964367,1391,4294966850,4294963915,4294967229,4294966723,4294966723,4294966723
54242963,6461563,6475534,16410,49,991,4294966585,4294965070,2672,13342,8504,4917,1565,4294963740,222,16296,4294964366,1242,4294966476,4294964060,4294967217,4294966714,4294966714,4294966714
54248944,6460798,6476254,16419,128,811,4294966739,4294965386,2641,13367,8498,4794,1600,4294963738,230,16352,4294964283,1294,4294966169,4294964133,4294967184,4294966722,4294966722,4294966722
54254940,6460913,6476313,16245,232,760,4294966680,4294965711,2578,13360,8589,4773,1652,4294963704,205,16474,4294964203,1072,4294965927,4294964210,4294967171,4294966725,4294966725,4294966725
54260947,6462751,6476774,16339,84,732,4294966869,4294966010,2580,13305,8572,4777,1683,4294963700,168,16512,4294964215,1127,4294965824,4294964239,4294967113,4294966722,4294966722,4294966722
54266959,6462623,6476727,16138,298,910,4294966845,4294966332,2515,13272,8601,4616,1827,4294963750,112,16635,4294964180,1118,4294965684,4294964333,4294967058,4294966712,4294966712,4294966712
54272961,6461549,6476760,16064,288,951,4294966842,4294966510,2433,13186,8589,4420,1863,4294963721,49,16579,4294964144,1244,4294965702,4294964315,4294966958,4294966716,4294966716,4294966716
54278945,6463120,6477404,16089,244,1107,4294966549,4294966589,2386,13305,8559,4271,1946,4294963872,4294967284,16603,4294964124,1232,4294965791,4294964241,4294966894,4294966722,4294966722,4294966722
54286944,6462279,6476955,16133,154,1043,4294966556,4294966482,2338,13198,8624,4047,1952,4294964083,4294967208,16650,4294964184,1103,4294966024,4294964268,4294966814,4294966723,4294966723,4294966723
54294948,6462463,6478079,16310,205,978,261,4294966140,2387,13226,8502,3907,1795,4294964287,4294967140,16626,4294964239,976,4294966336,4294964382,4294966770,4294966722,4294966722,4294966722
54300956,6464277,6479360,15951,511,1322,4294966549,4294965989,2197,13151,8570,3939,1689,4294964486,4294967076,16611,4294964237,1098,4294966479,4294964450,4294966731,4294966716,4294966716,4294966716
54308960,6462037,6477669,16190,284,1205,4294965819,4294965778,2132,13171,8599,4006,1730,4294964432,4294967084,16603,4294964236,1004,4294966626,4294964468,4294966673,4294966712,4294966712,4294966712
54316947,6462885,6478706,16330,44,883,4294965973,4294965554,2179,13436,8760,4047,1658,4294964427,4294967046,16657,4294964239,768,4294966591,4294964612,4294966685,4294966721,4294966721,4294966721
54324949,6463768,6478989,16397,4294967215,750,4294965984,4294965474,2199,13455,8773,4060,1651,4294964483,4294966992,16636,4294964276,608,4294966485,4294964715,4294966700,4294966720,4294966720,4294966720
54332966,6462998,6479403,16437,4294967270,684,4294965915,4294965616,2216,13463,8766,4170,1805,4294964404,4294967044,16594,4294964276,528,4294966314,4294964790,4294966746,4294966710,4294966710,4294966710
54340941,6463757,6478416,16317,4294967129,517,4294965728,4294965853,2206,13519,8821,4060,1820,4294964323,4294967000,16594,4294964274,286,4294966048,4294964990,4294966725,4294966723,4294966723,4294966723
54348959,6462172,6477927,16226,4294966891,398,4294965674,4294966058,2218,13601,8873,3982,1754,4294964322,4294966989,16783,4294964297,386,4294965887,4294965134,4294966687,4294966710,4294966710,4294966710
54356957,6462775,6477958,16227,4294966791,459,4294965761,4294966132,2236,13590,8771,3875,1700,4294964314,4294966943,16590,4294964212,510,4294965842,4294965080,4294966666,4294966712,4294966712,4294966712
54364954,6462713,6477208,16116,4294966693,686,4294965656,4294966252,2209,13601,8845,3744,1687,4294964378,4294966896,16623,4294964145,534,4294966027,4294964848,4294966599,4294966720,4294966720,4294966720
54372956,6461618,6477130,16015,4294966414,875,4294965792,4294966193,2190,13667,8835,3539,1693,4294964547,4294966827,16705,4294964211,544,4294966179,4294964685,4294966497,4294966718,4294966718,4294966718
54380945,6463287,6476986,16035,4294966345,888,4294965685,4294966044,2069,13655,8748,3419,1673,4294964695,4294966809,16734,4294964288,468,4294966434,4294964690,4294966442,4294966721,4294966721,4294966721
54388944,6462115,6477113,16029,4294966281,816,4294965632,4294965926,1923,13644,8719,3366,1665,4294964788,4294966804,16515,4294964355,455,4294966624,4294964707,4294966437,4294966724,4294966724,4294966724
54396949,6461469,6476465,16197,4294966225,780,4294965710,4294965934,1877,13673,8722,3400,1654,4294965027,4294966733,16537,4294964395,306,4294966633,4294964686,4294966344,4294966720,4294966720,4294966720
54404943,6461033,6476571,16244,4294966307,734,4294965910,4294965986,1837,13654,8658,3403,1907,4294965049,4294966830,16529,4294964320,230,4294966503,4294964783,4294966318,4294966724,4294966724,4294966724
54412968,6459692,6475200,16239,4294966388,486,4294966001,4294966080,1855,13670,8630,3497,2035,4294965020,4294966849,16503,4294964219,435,4294966178,4294964906,4294966294,4294966708,4294966708,4294966708
54420972,6461713,6475413,16278,4294966468,409,4294966160,4294966237,1944,13853,8738,3097,2475,4294964891,4294966793,16427,4294964191,391,4294966201,4294964793,4294966184,4294966705,4294966705,4294966705
54428971,6460950,6475429,16408,4294966458,298,4294966153,4294966356,2098,13920,8991,2600,2869,4294965118,4294966850,16538,4294964373,4294967265,4294966134,4294964816,4294966064,4294966705,4294966705,4294966705
54436950,6461886,6474878,16435,4294966276,312,4294966263,4294966283,2299,13883,9315,2504,3275,4294965553,4294967059,16593,4294964460,4294966640,4294966118,4294965096,4294966141,4294966718,4294966718,4294966718
54444945,6462593,6476329,16554,4294966125,298,4294967210,4294965990,2638,13676,9573,3001,3418,4294965540,83,16836,4294964944,4294966678,4294965720,4294965743,4294966184,4294966722,4294966722,4294966722
54452950,6460269,6475387,16153,4294965835,749,4294966275,4294965568,2613,13685,9530,3363,3098,4294965043,302,16692,4294965049,4294966751,4294965430,4294966096,4294966323,4294966721,4294966721,4294966721
54460951,6462267,6476640,16169,4294965435,557,4294966205,4294965161,2794,13738,9380,3395,2441,4294964621,422,16621,4294965060,4294966782,4294965248,4294966454,4294966461,4294966721,4294966721,4294966721
54468953,6460716,6475911,16382,4294965186,340,4294966397,4294964928,2758,13582,9274,2975,1656,4294964581,405,16596,4294965028,4294966715,4294965192,4294966576,4294966508,4294966715,4294966715,4294966715
54476953,6461205,6477132,16445,4294965187,182,4294966801,4294965222,2672,13416,9365,2431,1543,4294964787,474,16466,4294964653,4294967106,4294965507,4294966445,4294966665,4294966715,4294966715,4294966715
54484949,6461707,6476690,16730,4294964689,96,4294966606,4294965906,2374,13627,9317,1982,1616,4294965079,483,16522,4294964491,179,4294966209,4294965918,4294966689,4294966719,4294966719,4294966719
54492961,6460048,6476263,16509,4294965197,395,4294966692,4294966907,2074,13985,9370,1874,1706,4294965245,387,16496,4294964386,303,4294967022,4294965229,4294966658,4294966710,4294966710,4294966710
54500969,6461920,6476729,16680,4294965424,612,4294966954,367,1889,14148,9163,2140,1532,4294965188,321,16686,4294964344,4294967273,243,4294964924,4294966694,4294966710,4294966710,4294966710
54506968,6462122,6477701,16580,4294965931,636,4294967224,802,1869,14266,9000,2209,1327,4294964988,262,16761,4294964374,4294967054,390,4294964876,4294966682,4294966708,4294966708,4294966708
54512932,6460768,6477018,16551,4294966077,1030,4294967038,1008,1831,14426,8873,2066,1204,4294964875,199,16606,4294964234,4294966826,59,4294965190,4294966572,4294966729,4294966729,4294966729
54518945,6462031,6476897,16522,4294966300,1057,4294967201,931,1919,14559,8892,2154,979,4294964933,145,16437,4294964213,4294966522,178,4294965361,4294966590,4294966720,4294966720,4294966720
54524955,6462472,6477579,16486,4294966373,1002,4294967278,594,2006,14376,8781,2282,1016,4294964973,180,16298,4294964180,4294966173,257,4294965404,4294966720,4294966715,4294966715,4294966715
54530965,6461351,6477696,16410,4294966403,1098,4294967258,82,2011,14421,8892,2393,1270,4294964977,233,16563,4294964219,4294965983,36,4294965461,4294966899,4294966708,4294966708,4294966708
54536947,6462104,6477608,16353,4294966418,899,4294967122,4294966759,1989,14446,8821,2272,1542,4294965032,357,16673,4294964393,4294965811,4294967059,4294965523,4294966976,4294966724,4294966724,4294966724
54544952,6462644,6477552,16229,4294966315,720,4294966965,4294966005,1862,14495,8884,1992,1797,4294965215,465,16961,4294964435,4294965739,4294966988,4294965620,4294967210,4294966716,4294966716,4294966716
54552944,6461068,6477005,16245,4294966210,322,4294966777,4294965402,1683,14469,8830,1735,2000,4294965363,549,17048,4294964510,4294965964,4294967015,4294965580,96,4294966720,4294966720,4294966720
54560940,6462826,6477938,16280,4294966197,4294967227,4294966384,4294965162,1393,14405,8788,1734,1939,4294965672,473,17119,4294964634,4294966200,88,4294965409,261,4294966726,4294966726,4294966726
54568960,6461532,6477252,16351,4294966196,4294966965,4294966077,4294965237,1183,14342,8826,1731,1749,4294965880,462,17167,4294964674,4294966346,283,4294965323,393,4294966715,4294966715,4294966715
54576932,6461946,6478036,16309,4294966086,4294966703,4294965811,4294965582,994,14242,8818,1774,1474,4294966188,431,17051,4294964569,4294966465,706,4294965405,478,4294966730,4294966730,4294966730
54584946,6462201,6476840,16227,4294965896,4294966675,4294965627,4294966035,926,14066,8783,1739,1594,4294966382,448,17027,4294964620,4294966248,1212,4294965358,402,4294966720,4294966720,4294966720
54592955,6461150,6476577,16131,4294965734,4294966736,4294965623,4294966497,937,14005,8862,1627,1594,4294966637,466,17110,4294964800,4294965958,1601,4294965594,422,4294966718,4294966718,4294966718
54600955,6462619,6477117,16009,4294965535,4294966917,4294965633,4294966902,1017,13859,8931,1434,1554,4294966897,392,17197,4294964936,4294965808,1745,4294966046,406,4294966713,4294966713,4294966713
54608952,6461159,6476282,16023,4294965438,4294966934,4294965907,4294967028,1180,13819,9210,1541,1581,4294967110,256,17340,4294964981,4294965649,1744,4294966308,283,4294966715,4294966715,4294966715
54616951,6461970,6477162,15799,4294965205,4294967201,4294966104,4294966939,1394,13743,9291,1720,1662,4294967048,230,17451,4294964978,4294965629,1744,4294966557,121,4294966721,4294966721,4294966721
54624938,6462154,6476332,15906,4294964949,69,4294966442,4294966645,1547,13936,9320,1642,1426,4294966944,216,17416,4294964887,4294965600,1784,4294966702,4294967279,4294966726,4294966726,4294966726
54632948,6461648,6477404,16015,4294965079,20,4294966384,4294966383,1552,14386,9657,1623,1209,4294966836,289,17488,4294964803,4294965769,1901,4294966673,4294967073,4294966723,4294966723,4294966723
54640935,6462742,6476707,16188,4294964874,81,4294966496,4294966201,1513,13906,9299,1751,994,4294966637,261,17369,4294964685,4294965811,2041,4294966591,4294966872,4294966730,4294966730,4294966730
54648952,6461249,6476459,16289,4294964797,41,4294966641,4294966111,1455,13818,9257,1772,937,4294966234,30,17158,4294964683,4294965490,2303,4294966522,4294966675,4294966718,4294966718,4294966718
54656943,6461501,6477117,16388,4294964885,23,4294966935,4294966170,1412,14166,9225,1619,913,4294966207,4294967179,17063,4294964893,4294965368,2348,4294966575,4294966645,4294966723,4294966723,4294966723
54664957,6460413,6476555,16455,4294964938,92,4294967156,4294966302,1421,14222,9209,1438,850,4294966296,4294967092,16972,4294964956,4294965437,2041,4294966742,4294966644,4294966714,4294966714,4294966714
54672943,6461298,6477577,16422,4294964927,64,106,4294966388,1494,14241,9134,1224,559,4294966405,4294966880,16902,4294964803,4294965420,1467,4294966925,4294966689,4294966726,4294966726,4294966726
54680967,6462849,6476624,16364,4294965061,244,315,4294966321,1546,14304,9056,1067,494,4294966554,4294966739,16911,4294964582,4294965540,941,4294967213,4294966696,4294966710,4294966710,4294966710
54688948,6462330,6477037,16292,4294965070,402,503,4294966156,1580,14371,9101,1225,392,4294966678,4294966641,16938,4294964338,4294965562,651,236,4294966658,4294966723,4294966723,4294966723
54694943,6462349,6477899,16326,4294965210,404,673,4294965942,1595,14452,9019,1265,344,4294966729,4294966653,17048,4294964175,4294965412,488,570,4294966681,4294966726,4294966726,4294966726
54700974,6463284,6477212,16337,4294965327,448,737,4294965758,1608,14474,8931,1354,360,4294966705,4294966679,16765,4294964182,4294965504,460,922,4294966741,4294966704,4294966704,4294966704
54706975,6462778,6477227,16449,4294965386,406,802,4294965597,1607,14600,8888,1398,455,4294966677,4294966801,16930,4294964159,4294965590,428,1165,4294966737,4294966702,4294966702,4294966702
54712954,6461872,6477110,16454,4294965334,335,823,4294965520,1608,14699,8845,1283,276,4294966687,4294966859,17136,4294964156,4294965773,332,1569,4294966880,4294966718,4294966718,4294966718
54718935,6462855,6476832,16529,4294965381,179,775,4294965591,1544,14750,8860,1203,241,4294966785,4294966958,17276,4294964137,4294965831,334,1750,4294967006,4294966731,4294966731,4294966731
54724950,6462889,6477348,16539,4294965337,100,549,4294965768,1496,14824,8877,1166,124,4294966933,4294967022,17152,4294964264,4294965987,214,1738,4294967074,4294966719,4294966719,4294966719
54730950,6461342,6476899,16538,4294965304,4294967226,403,4294966040,1411,14902,8801,1136,122,4294967001,4294967103,17561,4294964072,4294965945,183,1707,109,4294966717,4294966717,4294966717
54736960,6461727,6476021,16552,4294965183,4294967069,195,4294966434,1286,14982,8816,1329,260,4294967127,4294967190,17464,4294964464,4294965968,399,1504,136,4294966712,4294966712,4294966712
54742950,6462186,6476013,16601,4294965173,4294966843,4294967290,4294966938,1135,14925,8889,1398,403,4294967176,4294967249,17407,4294964500,4294966108,467,1077,162,4294966719,4294966719,4294966719
54750948,6460423,6475319,16437,4294964956,4294966758,4294966926,492,930,14826,8970,1441,399,4294967211,42,17138,4294964792,4294966254,397,378,82,4294966723,4294966723,4294966723
54756949,6461590,6476693,16305,4294964755,4294966575,4294966790,1021,747,14769,8968,1378,307,4294967219,80,17168,4294964841,4294966213,321,4294967259,62,4294966720,4294966720,4294966720
54762961,6462209,6476179,16124,4294964635,4294966625,4294966751,1448,541,14585,8892,1354,302,16,53,17148,4294964935,4294966001,585,4294967054,45,4294966717,4294966717,4294966717
54768940,6460822,6475611,16014,4294964399,4294966703,4294966669,1689,407,14424,8927,1269,212,43,4294967249,16949,4294964930,4294966069,812,4294966908,50,4294966727,4294966727,4294966727
54774961,6461559,6475858,15819,4294964190,4294966764,4294966620,1473,259,14392,8942,1183,108,87,4294967223,16794,4294964880,4294965952,1116,4294966917,179,4294966714,4294966714,4294966714
54780976,6462613,6475771,15923,4294964135,4294966751,4294966562,999,187,14228,8895,994,89,99,4294967172,16663,4294964969,4294965803,1157,4294966917,56,4294966702,4294966702,4294966702
54786953,6461252,6475295,15751,4294963847,4294966806,4294966532,304,72,14245,8992,1010,45,110,4294967160,16757,4294964871,4294965753,1190,4294967129,92,4294966714,4294966714,4294966714
54792948,6460417,6476235,15745,4294963912,4294966911,4294966536,4294966871,4294967252,14125,8909,1021,38,164,4294967262,16754,4294964848,4294965730,1170,4294967288,110,4294966720,4294966720,4294966720
54800960,6462206,6476791,15867,4294963963,4294966854,4294966385,4294965927,4294967078,13985,8872,1100,185,186,4294967289,16728,4294964724,4294965728,1109,165,70,4294966711,4294966711,4294966711
54808949,6463406,6477978,15924,4294964065,4294966770,4294966212,4294965228,4294966869,13974,8966,1145,175,104,55,16849,4294964601,4294965873,1050,269,7,4294966717,4294966717,4294966717
54814968,6466635,6480739,16067,4294964293,4294966675,4294966177,4294965109,4294966714,14059,9044,1123,164,13,69,16860,4294964542,4294965780,962,236,4294967249,4294966710,4294966710,4294966710
54822952,6468744,6482912,16301,4294964583,4294966608,4294966207,4294965415,4294966563,14133,9000,1106,106,4294967281,102,16989,4294964427,4294965881,749,244,4294967231,4294966716,4294966716,4294966716
54830946,6461316,6474047,16499,4294964747,4294966661,4294966498,4294966114,4294966592,14218,8983,1095,28,11,84,17086,4294964471,4294965812,536,218,4294967234,4294966719,4294966719,4294966719
54836949,6459186,6470550,16486,4294965030,4294966826,4294966855,4294966716,4294966704,14392,9033,1215,70,78,67,17078,4294964532,4294965897,384,195,4294967236,4294966722,4294966722,4294966722
54842978,6458721,6472050,16544,4294965066,4294967052,4294966972,4294967184,4294966769,14393,9011,1270,134,180,35,17139,4294964539,4294965794,292,210,4294967224,4294966699,4294966699,4294966699
54850956,6457229,6472975,16545,4294965097,4294967183,19,288,4294966920,14486,9027,1336,197,383,4294967266,17124,4294964697,4294965701,249,303,4294967255,4294966716,4294966716,4294966716
54856968,6459738,6474451,16482,4294965090,4294967206,184,276,4294967011,14472,9043,1111,296,574,4294967222,17114,4294964769,4294965779,462,403,67,4294966709,4294966709,4294966709
54862960,6461260,6475278,16435,4294965053,4294967236,370,222,4294967083,14484,9161,1158,306,666,4294967154,17123,4294964846,4294965742,570,461,81,4294966712,4294966712,4294966712
54868967,6460264,6475948,16409,4294965075,4294967171,474,76,4294967128,14430,9157,1236,228,725,4294967123,17202,4294964871,4294965668,775,566,141,4294966707,4294966707,4294966707
54874946,6460867,6476171,16348,4294965040,4294966984,504,4294967253,4294967167,14392,9154,1376,232,798,4294967087,17279,4294964893,4294965711,949,695,324,4294966724,4294966724,4294966724
54880960,6462637,6476322,16244,4294965016,4294967103,516,4294967169,4294967135,14401,9257,1130,112,893,4294967029,17328,4294965009,4294965826,965,772,413,4294966712,4294966712,4294966712
54886930,6461607,6476259,16111,4294965029,4294967235,322,4294967144,4294967006,14476,9288,987,141,899,4294966998,17365,4294964935,4294965864,917,794,424,4294966732,4294966732,4294966732
54892943,6461244,6476228,16004,4294965012,4294967263,130,4294967109,4294966884,14332,9210,1240,97,895,4294966999,17360,4294964888,4294965980,959,770,460,4294966725,4294966725,4294966725
54898950,6462843,6476382,15978,4294965015,4294967275,4294967194,4294967146,4294966691,14315,9254,1374,40,897,4294966976,17383,4294964862,4294965807,1074,807,504,4294966720,4294966720,4294966720
54906947,6462138,6476281,16184,4294964996,4294967056,4294966868,4294967259,4294966394,14271,9282,1704,4294967279,817,4294966999,17370,4294964803,4294965726,1218,880,445,4294966721,4294966721,4294966721
54914948,6461614,6476406,16261,4294964964,4294966954,4294966695,115,4294966158,14190,9255,1783,4294967142,799,4294967072,17275,4294964808,4294965847,1269,953,330,4294966721,4294966721,4294966721
54922964,6463075,6476894,16428,4294965017,4294966878,4294966688,213,4294966005,14155,9254,1472,4294966976,833,4294967114,17172,4294964812,4294965984,1263,995,279,4294966710,4294966710,4294966710
54930951,6461371,6476305,16411,4294965006,4294966819,4294966753,325,4294965957,14208,9218,1086,4294966816,909,4294967113,17086,4294964871,4294965944,1148,1052,206,4294966717,4294966717,4294966717
54938949,6462497,6477096,16447,4294964994,4294966779,4294966941,561,4294966006,14394,9288,1046,4294966640,945,4294967122,16974,4294964889,4294965904,854,1184,161,4294966722,4294966722,4294966722
54946944,6462399,6476911,16412,4294965021,4294966799,4294967073,734,4294966068,14460,9328,1229,4294966536,978,4294967099,17028,4294964831,4294965933,669,1235,130,4294966725,4294966725,4294966725
54954939,6461976,6477783,16360,4294964975,4294966996,4294967115,816,4294966061,14422,9264,1370,4294966592,877,4294967067,17113,4294964835,4294966086,639,1071,118,4294966727,4294966727,4294966727
54962958,6462637,6476887,16332,4294964955,4294967174,4294967166,754,4294966009,14499,9281,1583,4294966669,890,4294967077,17152,4294964957,4294966009,508,939,139,4294966715,4294966715,4294966715
54970963,6460871,6476798,16368,4294965016,161,4294967217,513,4294965956,14397,9356,1543,4294966762,861,4294967073,17249,4294964897,4294965814,487,842,226,4294966710,4294966710,4294966710
54976952,6462308,6478079,16378,4294965057,145,4294967266,244,4294965937,14389,9280,1599,4294966723,914,4294967100,17315,4294964857,4294965891,497,852,276,4294966721,4294966721,4294966721
54982955,6463868,6478165,16415,4294965071,184,29,4294967273,4294965893,14451,9343,1571,4294966752,949,4294967051,17379,4294964790,4294965948,639,887,314,4294966716,4294966716,4294966716
54988943,6462786,6478081,16508,4294965179,232,78,4294967035,4294965863,14470,9422,1611,4294966706,1060,4294967105,17363,4294964709,4294966124,761,972,357,4294966722,4294966722,4294966722
54994970,6463017,6478420,16506,4294965280,262,217,4294966844,4294965918,14516,9472,1610,4294966671,1166,4294967181,17394,4294964737,4294966256,904,1055,409,4294966706,4294966706,4294966706
55000943,6464714,6478724,16481,4294965309,130,227,4294966654,4294965872,14535,9529,1753,4294966550,1228,4294967241,17305,4294964671,4294966489,1023,1070,450,4294966725,4294966725,4294966725
55006958,6464073,6478594,16501,4294965327,188,296,4294966567,4294965855,14578,9548,1878,4294966486,1263,20,17300,4294964574,4294966471,1148,1091,482,4294966717,4294966717,4294966717
55012959,6463075,6478701,16552,4294965360,4294967281,294,4294966560,4294965841,14484,9509,1856,4294966385,1316,147,17344,4294964540,4294966498,1192,1264,434,4294966715,4294966715,4294966715
55018970,6464134,6478717,16481,4294965383,35,248,4294966577,4294965807,14522,9403,1795,4294966354,1415,218,17369,4294964602,4294966441,1222,1575,406,4294966707,4294966707,4294966707
55024954,6463988,6478423,16459,4294965349,4294967275,265,4294966593,4294965815,14466,9229,1757,4294966182,1571,263,17183,4294964578,4294966380,1383,1772,441,4294966720,4294966720,4294966720
55030969,6462457,6478200,16411,4294965311,4294967137,199,4294966657,4294965742,14476,9164,1671,4294966138,1639,250,17176,4294964628,4294966312,1443,1989,473,4294966711,4294966711,4294966711
55036956,6463250,6478065,16345,4294965235,4294967051,173,4294966758,4294965729,14354,9069,1775,4294966018,1774,278,17041,4294964647,4294966297,1520,2165,541,4294966716,4294966716,4294966716
55042971,6463684,6477937,16401,4294965196,4294966926,170,4294966871,4294965724,14314,9062,1867,4294965898,1804,288,16966,4294964727,4294966276,1508,2339,596,4294966707,4294966707,4294966707
55048957,6462621,6477778,16411,4294965154,4294966933,184,4294967049,4294965693,14126,8977,2102,4294965899,1845,288,16866,4294964749,4294966382,1436,2428,660,4294966714,4294966714,4294966714
55054937,6462354,6477581,16400,4294965180,4294966900,269,4294967260,4294965668,14211,9018,2094,4294965838,1799,215,16912,4294964774,4294966398,1425,2510,710,4294966728,4294966728,4294966728
55060965,6463335,6477237,16257,4294965231,4294966913,287,155,4294965659,14144,9055,2116,4294965775,1767,249,16803,4294964805,4294966531,1393,2605,821,4294966710,4294966710,4294966710
55066967,6463023,6477066,16312,4294965200,4294967011,361,348,4294965663,14213,9157,1990,4294965735,1795,299,16800,4294964858,4294966660,1365,2631,855,4294966708,4294966708,4294966708
55072946,6461366,6476446,16303,4294965224,4294967153,377,444,4294965662,14088,9050,2097,4294965615,1847,302,16745,4294964851,4294966738,1319,2596,915,4294966721,4294966721,4294966721
55078976,6462569,6476439,16193,4294965276,4294967223,452,487,4294965646,14019,9022,2149,4294965565,1849,355,16785,4294964846,4294966848,1249,2534,974,4294966702,4294966702,4294966702
55084952,6462427,6475739,16227,4294965347,38,503,423,4294965685,14134,9045,2172,4294965568,1926,301,16763,4294964846,4294966889,1209,2486,980,4294966719,4294966719,4294966719
55090955,6460859,6475287,16210,4294965419,4294967274,440,275,4294965621,13917,8996,2226,4294965676,1955,327,16739,4294964877,4294966965,1179,2422,994,4294966716,4294966716,4294966716
55096965,6461453,6474714,16135,4294965597,122,478,54,4294965667,13913,8970,2228,4294965738,2017,341,16825,4294964782,4294967069,1169,2297,1011,4294966709,4294966709,4294966709
55102948,6462132,6474484,16174,4294965637,67,570,4294967174,4294965664,13948,9055,2164,4294965754,2145,324,16738,4294964780,4294967166,1174,2182,988,4294966721,4294966721,4294966721
55108966,6460607,6474175,16159,4294965774,4294967289,570,4294967041,4294965595,13933,8993,2136,4294965736,2232,310,16762,4294964731,4,1228,2061,957,4294966708,4294966708,4294966708
55114954,6460983,6474429,16140,4294965867,4294967266,536,4294967002,4294965575,13906,8889,2316,4294965791,2310,255,16749,4294964726,4294967063,1280,1962,894,4294966717,4294966717,4294966717
55120946,6461844,6473988,16217,4294965983,4294967235,583,4294966982,4294965524,13810,8727,2477,4294965875,2425,253,16740,4294964743,4294966891,1320,2005,852,4294966721,4294966721,4294966721
55126963,6461421,6473722,16235,4294965952,4294967252,460,4294967086,4294965470,13789,8718,2590,4294966006,2458,262,16757,4294964758,4294966733,1296,2039,834,4294966712,4294966712,4294966712
55132957,6460745,6474013,16110,4294965875,4294967278,624,4294967140,4294965436,13831,8755,2614,4294966158,2484,240,16698,4294964723,4294966954,1247,2063,837,4294966715,4294966715,4294966715
55138954,6461828,6474532,16322,4294966019,4294967216,659,4294967181,4294965370,13789,8916,2610,4294966062,2560,232,16611,4294964619,4294967109,1192,1982,816,4294966718,4294966718,4294966718
55144972,6463009,6475107,16310,4294966085,4294967090,606,4294967257,4294965353,13662,8830,2619,4294965981,2564,270,16774,4294964674,4294967031,1317,2086,784,4294966705,4294966705,4294966705
55150950,6461558,6474688,16305,4294966034,4294967000,587,0,4294965315,13698,8839,2541,4294965970,2489,194,16672,4294964716,4294967164,1199,2224,747,4294966722,4294966722,4294966722
55156939,6461796,6474515,16350,4294966218,4294966888,604,82,4294965297,13789,8823,2612,4294965736,2500,178,16681,4294964773,4294967175,1128,2405,703,4294966727,4294966727,4294966727
55162949,6463176,6474983,16345,4294966127,4294966769,450,178,4294965236,13878,8877,2587,4294965770,2500,255,16633,4294964797,4294967232,1021,2469,687,4294966719,4294966719,4294966719
55168948,6461800,6474836,16399,4294966183,4294966857,462,388,4294965213,13790,8872,2631,4294965764,2449,246,16615,4294964775,89,944,2522,689,4294966723,4294966723,4294966723
55174964,6461854,6474773,16513,4294966148,4294966976,357,568,4294965139,13733,8811,2854,4294965754,2434,256,16780,4294964714,145,878,2616,641,4294966708,4294966708,4294966708
55180962,6462921,6474741,16383,4294966218,4294966978,202,706,4294965099,13702,8907,2988,4294965816,2401,227,16768,4294964705,171,820,2624,567,4294966711,4294966711,4294966711
55186956,6462103,6474385,16381,4294966183,4294967177,62,726,4294965082,13621,8806,3012,4294965842,2363,218,16763,4294964758,256,857,2622,532,4294966713,4294966713,4294966713
55192961,6461680,6474663,16349,4294966124,4294967234,54,773,4294965064,13785,8930,2914,4294965812,2422,236,16734,4294964583,399,915,2665,530,4294966711,4294966711,4294966711
55198942,6462949,6474782,16339,4294966145,13,4294967271,733,4294965026,13505,8785,3137,4294965735,2481,178,16710,4294964595,267,1124,2639,549,4294966725,4294966725,4294966725
55204955,6463192,6474786,16303,4294966188,145,4294967270,641,4294965001,13696,8982,3087,4294965831,2460,145,16631,4294964542,281,1334,2767,600,4294966717,4294966717,4294966717
55210956,6461938,6474921,16266,4294966132,167,4294967240,557,4294965002,13661,8897,3156,4294965835,2550,167,16644,4294964670,240,1559,2807,656,4294966716,4294966716,4294966716
55216943,6462352,6475397,16329,4294966212,207,26,531,4294964992,13707,9001,3203,4294965778,2673,96,16630,4294964761,185,1526,2879,727,4294966723,4294966723,4294966723
55222966,6464000,6475470,16341,4294966241,144,118,487,4294964993,13723,8906,3242,4294965860,2742,70,16641,4294964742,345,1425,2965,791,4294966708,4294966708,4294966708
55228953,6462706,6475144,16381,4294966297,144,215,464,4294964998,13753,8958,3324,4294965907,2790,4294967284,16783,4294964843,223,1504,3006,881,4294966717,4294966717,4294966717
55234954,6462181,6474872,16360,4294966361,139,335,504,4294965014,13514,8859,3484,4294965823,2909,1,16974,4294964883,282,1280,3186,909,4294966717,4294966717,4294966717
55240948,6463827,6475433,16372,4294966444,181,399,560,4294965044,13681,8943,3427,4294965867,2859,4294967145,16862,4294964767,418,1191,3286,952,4294966719,4294966719,4294966719
55246940,6462937,6475077,16314,4294966577,276,440,617,4294965000,13689,8902,3475,4294965798,3035,4294967178,16794,4294964714,539,1214,3241,901,4294966724,4294966724,4294966724
55252950,6462037,6474915,16326,4294966559,363,367,685,4294964990,13697,8905,3483,4294965745,3148,4294967084,16724,4294964670,679,1135,3188,838,4294966719,4294966719,4294966719
55258943,6463841,6475441,16250,4294966674,378,356,741,4294964959,13693,8868,3469,4294965713,3381,4294967084,16683,4294964717,822,1117,3131,767,4294966725,4294966725,4294966725
55264951,6463719,6475368,16285,4294966594,314,309,724,4294964911,13553,8825,3555,4294965669,3379,4294967100,16599,4294964721,896,1090,3040,672,4294966717,4294966717,4294966717
55270958,6462164,6474756,16317,4294966688,405,388,715,4294964911,13653,8900,3542,4294965656,3351,4294967058,16595,4294964649,825,1082,2964,601,4294966715,4294966715,4294966715
55276930,6462591,6474759,16340,4294966747,413,381,714,4294964915,13706,8882,3665,4294965505,3344,4294967039,16412,4294964683,944,1080,2890,501,4294966733,4294966733,4294966733
55282965,6463869,6475058,16348,4294966772,348,395,708,4294964932,13666,8857,3657,4294965341,3320,4294967050,16543,4294964750,812,1056,2830,407,4294966708,4294966708,4294966708
55288949,6462950,6474936,16373,4294966801,354,354,761,4294964955,13705,8847,3721,4294965316,3276,4294967060,16591,4294964682,829,991,2904,406,4294966717,4294966717,4294966717
55294954,6462136,6474782,16320,4294966735,356,248,755,4294964950,13610,8855,3831,4294965257,3271,4294967062,16599,4294964630,847,939,3072,434,4294966716,4294966716,4294966716
55300968,6463731,6475134,16347,4294966775,369,220,738,4294964919,13624,8871,3948,4294965294,3170,4294967027,16563,4294964638,754,988,3172,450,4294966706,4294966706,4294966706
55306957,6463371,6475079,16407,4294966810,313,171,756,4294964884,13597,8825,3991,4294965247,3205,4294967076,16572,4294964621,770,981,3260,471,4294966718,4294966718,4294966718
55312944,6462190,6475172,16447,4294966798,333,112,833,4294964872,13673,8910,3923,4294965248,3176,4294967093,16532,4294964594,988,933,3198,530,4294966724,4294966724,4294966724
55318948,6463463,6475161,16455,4294966872,313,174,883,4294964871,13783,8908,3948,4294965245,3211,4294967128,16778,4294964516,1105,872,3273,553,4294966723,4294966723,4294966723
55324945,6463730,6475281,16463,4294966877,369,143,995,4294964857,13753,8932,4018,4294965197,3279,4294967153,16849,4294964545,1198,848,3340,589,4294966722,4294966722,4294966722
55330948,6462516,6475380,16470,4294966811,396,184,1090,4294964829,13629,8857,4149,4294965202,3246,4294967161,16789,4294964566,1138,850,3516,680,4294966722,4294966722,4294966722
55336955,6463497,6475782,16446,4294966873,380,310,1191,4294964810,13706,8911,4138,4294965173,3258,4294967178,16704,4294964545,1183,904,3617,707,4294966717,4294966717,4294966717
55342963,6464121,6475741,16478,4294966943,542,272,1300,4294964782,13675,8816,4315,4294965128,3322,4294967220,16613,4294964486,1242,930,3704,729,4294966713,4294966713,4294966713
55348955,6462647,6475378,16371,4294966886,680,124,1350,4294964755,13705,8890,4216,4294965119,3430,4294967187,16613,4294964561,1239,985,3798,810,4294966716,4294966716,4294966716
55354965,6462619,6475484,16381,4294966921,622,129,1323,4294964749,13749,8802,4233,4294965018,3624,4294967216,16623,4294964582,1322,1001,3853,841,4294966707,4294966707,4294966707
55360946,6463657,6475323,16350,4294966893,604,116,1296,4294964714,13667,8752,4321,4294965108,3721,4294967214,16612,4294964605,1458,1067,3910,881,4294966724,4294966724,4294966724
55366950,6463708,6475596,16352,4294966929,644,130,1170,4294964671,13632,8704,4351,4294965123,3729,4294967279,16572,4294964520,1472,1101,3978,916,4294966719,4294966719,4294966719
55372939,6462548,6475689,16377,4294966927,671,127,1094,4294964637,13659,8767,4452,4294965114,3706,4294967283,16516,4294964549,1493,1120,3857,950,4294966727,4294966727,4294966727
55378967,6463786,6476084,16350,4294966991,651,176,1057,4294964641,13826,8791,4536,4294965129,3674,3,16634,4294964537,1552,1122,3856,954,4294966707,4294966707,4294966707
55384941,6464435,6476025,16480,4294967000,576,237,1059,4294964651,13799,8811,4479,4294965143,3720,82,16463,4294964520,1558,1105,3883,921,4294966725,4294966725,4294966725
55390961,6463419,6476385,16421,4294966907,472,421,1096,4294964669,13793,8811,4593,4294965119,3800,82,16452,4294964457,1553,1201,3780,903,4294966710,4294966710,4294966710
55396950,6463931,6476458,16438,4294967111,607,632,1192,4294964648,13675,8788,4672,4294965081,3919,96,16419,4294964459,1622,1142,3816,847,4294966719,4294966719,4294966719
55402939,6464528,6475930,16430,4294967049,568,532,1316,4294964637,13558,8822,4731,4294964999,3800,143,16487,4294964539,1642,1206,3838,928,4294966728,4294966728,4294966728
55408942,6462734,6475296,16364,4294967230,521,636,1347,4294964677,13493,8742,4775,4294964896,3776,234,16404,4294964539,1684,1213,3885,952,4294966725,4294966725,4294966725
55414951,6463017,6475388,16386,4294967179,662,535,1367,4294964688,13407,8765,4807,4294964844,3729,236,16322,4294964549,1717,1142,3932,991,4294966716,4294966716,4294966716
55420953,6464488,6475370,16434,4294967270,596,640,1456,4294964710,13383,8708,4846,4294964782,3774,244,16100,4294964450,1968,1173,3801,1085,4294966721,4294966721,4294966721
55426951,6464407,6475738,16298,17,716,510,1473,4294964725,13367,8655,4913,4294964839,3832,277,16382,4294964495,1890,1222,3789,1040,4294966719,4294966719,4294966719
55432954,6463345,6475925,16364,4294967280,729,522,1437,4294964725,13345,8572,4890,4294964845,3805,358,16437,4294964431,1958,1142,3816,990,4294966720,4294966720,4294966720
55438952,6464013,6475833,16233,4294967252,706,594,1452,4294964726,13333,8588,4943,4294964799,3986,266,16355,4294964515,2006,1313,3836,1002,4294966714,4294966714,4294966714
55444956,6464770,6475801,16265,102,763,515,1360,4294964671,13170,8568,5039,4294964869,3947,327,16159,4294964455,2056,1382,3737,973,4294966714,4294966714,4294966714
55450958,6463199,6475320,16192,150,774,350,1340,4294964617,13162,8471,5045,4294964816,3851,322,16014,4294964539,2117,1429,3619,949,4294966713,4294966713,4294966713
55456943,6463568,6475448,16137,206,775,182,1264,4294964615,13106,8417,5149,4294964901,3772,326,16214,4294964439,2159,1478,3585,956,4294966726,4294966726,4294966726
55462947,6464696,6475866,16173,249,794,95,1275,4294964599,13072,8375,5220,4294965059,3668,285,16199,4294964410,2156,1447,3650,923,4294966724,4294966724,4294966724
55468940,6463440,6476369,16188,268,704,189,1256,4294964576,13400,8458,5152,4294965125,3863,286,16176,4294964442,2269,1443,3732,935,4294966727,4294966727,4294966727
55474961,6464167,6477042,16169,363,795,275,1297,4294964543,13228,8404,5269,4294965114,4012,304,16288,4294964435,2215,1368,3732,978,4294966714,4294966714,4294966714
55480952,6466662,6477845,16176,434,833,310,1311,4294964479,13275,8393,5364,4294965267,4053,284,16211,4294964411,2395,1285,3855,1003,4294966721,4294966721,4294966721
55486943,6468118,6479291,16207,597,729,339,1429,4294964392,13263,8430,5511,4294965349,4119,249,16074,4294964392,2528,1225,3907,1017,4294966725,4294966725,4294966725
55492948,6469158,6483293,15969,693,856,256,1417,4294964374,13151,8332,5600,4294965305,4060,343,16149,4294964355,2471,1208,3932,1104,4294966724,4294966724,4294966724
55498969,6468572,6481746,16031,804,886,254,1394,4294964326,13171,8361,5648,4294965326,3954,342,16236,4294964356,2666,1210,4052,1156,4294966708,4294966708,4294966708
55504946,6467178,6478305,16111,903,943,21,1450,4294964300,13088,8338,5706,4294965271,3919,319,16210,4294964375,2746,1121,4170,1165,4294966721,4294966721,4294966721
55510940,6462103,6471737,16099,896,1016,4294967289,1431,4294964282,13014,8276,5845,4294965263,3876,299,16130,4294964370,2887,1030,4200,1182,4294966724,4294966724,4294966724
55516949,6460686,6471471,16063,926,1053,4294967261,1412,4294964258,13104,8397,5957,4294965350,3985,342,16157,4294964384,2955,1026,4140,1148,4294966720,4294966720,4294966720
55522949,6461212,6474114,16220,943,1039,4294967207,1353,4294964235,13002,8333,6160,4294965414,4036,354,16228,4294964395,2929,873,4316,1173,4294966719,4294966719,4294966719
55528981,6460968,6474615,16233,931,1038,4294967139,1337,4294964250,12890,8349,6065,4294965438,4153,354,16026,4294964487,2987,932,4287,1123,4294966697,4294966697,4294966697
55534955,6461397,6475009,16360,938,934,4294967118,1379,4294964250,12885,8331,6030,4294965326,4039,301,15815,4294964454,3275,880,4179,1098,4294966714,4294966714,4294966714
55540949,6463595,6476004,16407,876,981,4294967088,1521,4294964272,12799,8222,6250,4294965120,3976,264,15932,4294964315,3058,903,4139,1080,4294966719,4294966719,4294966719
55546938,6463281,6476409,16385,743,843,4294967028,1669,4294964225,12823,8210,6308,4294965074,3873,232,15957,4294964340,3083,1043,4215,1079,4294966728,4294966728,4294966728
55552957,6462438,6476480,16411,697,990,4294966945,1723,4294964150,12796,8079,6296,4294965080,4000,200,15871,4294964314,3246,1076,4276,1012,4294966714,4294966714,4294966714
55558961,6463956,6476604,16367,668,1241,4294966905,1758,4294964088,12639,7970,6297,4294965263,4118,355,15904,4294964335,3471,1054,4218,1056,4294966711,4294966711,4294966711
55564939,6463960,6476983,16118,624,1524,4294966833,1670,4294964043,12688,8154,6404,4294965377,4022,194,15918,4294964218,3369,1053,4160,1072,4294966726,4294966726,4294966726
55570957,6462563,6476795,15973,626,1550,4294966730,1625,4294963938,12584,8038,6656,4294965432,3972,150,15968,4294964196,3170,1215,4167,1010,4294966714,4294966714,4294966714
55576946,6462848,6477011,16018,712,1581,4294966786,1598,4294963857,12576,8036,6999,4294965398,3981,127,16069,4294964491,3217,1297,4729,869,4294966721,4294966721,4294966721
55582974,6464623,6477308,15985,772,1399,4294966752,1482,4294963824,12480,7931,7035,4294965363,3932,146,15509,4294964492,3476,1334,4644,746,4294966703,4294966703,4294966703
55588944,6463707,6476990,16083,1002,1341,4294967014,1426,4294963840,12472,7971,6976,4294965382,3824,161,15408,4294964456,3698,1283,4404,776,4294966723,4294966723,4294966723
55594951,6462985,6477008,16053,1275,1273,4294967193,1438,4294963902,12428,8032,6938,4294965290,3683,216,15449,4294964224,3897,1198,4215,890,4294966720,4294966720,4294966720
55600970,6464194,6477100,16139,1495,1214,166,1524,4294964016,12452,8146,6828,4294965216,3577,180,15548,4294964144,3823,1046,4176,882,4294966705,4294966705,4294966705
55606955,6464034,6476967,16251,1721,1211,381,1730,4294964091,12451,8049,6836,4294965036,3594,287,15473,4294964165,3917,984,4044,866,4294966717,4294966717,4294966717
55612963,6462818,6476678,16008,1818,1190,343,1748,4294964244,12535,8016,6790,4294965044,3540,153,15733,4294964172,3969,909,3976,869,4294966711,4294966711,4294966711
55618978,6464189,6476772,15967,1878,1198,362,2041,4294964331,12584,7982,6834,4294965074,3619,173,15737,4294964220,3944,905,3886,825,4294966701,4294966701,4294966701
55624964,6464501,6476866,15988,1923,1332,175,2212,4294964364,12498,7931,7078,4294965209,3605,102,15722,4294964191,3932,946,3752,777,4294966710,4294966710,4294966710
55630958,6463222,6476752,15856,1880,1537,4294967233,2280,4294964352,12656,7994,7122,4294965245,3568,4294967263,15832,4294964190,4041,1019,3615,681,4294966711,4294966711,4294966711
55636937,6464082,6477174,15810,1872,1618,4294966996,2265,4294964329,12542,7982,7146,4294965156,3572,4294967188,15847,4294964166,4041,971,3543,631,4294966728,4294966728,4294966728
55642965,6464663,6477019,15860,1847,1703,4294966838,2234,4294964293,12493,7966,7242,4294965082,3626,4294967142,15733,4294964204,4235,965,3489,612,4294966710,4294966710,4294966710
55648969,6462956,6476426,15918,1930,1853,4294966737,2217,4294964213,12430,7965,7489,4294965213,3540,4294967115,15674,4294964286,4270,927,3442,585,4294966706,4294966706,4294966706
55654951,6462803,6476406,15869,1950,1926,4294966723,2141,4294964174,12399,8020,7508,4294965230,3544,4294967120,15659,4294964369,4285,740,3413,485,4294966719,4294966719,4294966719
55660965,6464408,6477017,15995,1957,2082,4294966717,2111,4294964097,12379,8039,7546,4294965275,3551,4294967109,15749,4294964358,4245,624,3620,651,4294966711,4294966711,4294966711
55666943,6464614,6477399,15892,1962,2150,4294966710,2001,4294964068,12383,8086,7609,4294965247,3653,4294967120,15892,4294964367,4218,559,3775,768,4294966725,4294966725,4294966725
55672952,6463728,6478063,15865,2054,2288,4294966809,1985,4294964067,12313,8082,7770,4294965240,3706,4294967119,15836,4294964322,4363,485,3934,813,4294966719,4294966719,4294966719
55678973,6464956,6478384,15963,2067,2247,4294966803,1931,4294964059,12334,8033,7914,4294965182,3766,4294967170,15810,4294964221,4547,536,4052,858,4294966705,4294966705,4294966705
55684966,6465685,6478618,15964,2037,2243,4294966822,1922,4294964091,12449,7991,8030,4294965123,3829,4294967232,15644,4294964142,4789,678,3982,817,4294966709,4294966709,4294966709
55690950,6464253,6478390,16035,2057,2172,4294966845,1936,4294964117,12328,7968,8014,4294965082,3838,4294967228,15684,4294963894,4904,887,3654,1009,4294966717,4294966717,4294966717
55696951,6464874,6478612,16008,2007,2168,4294966855,2020,4294964130,12440,7937,8192,4294965051,3826,4294967272,15816,4294964034,5147,1005,3766,800,4294966720,4294966720,4294966720
55702956,6465871,6478732,16035,2086,2211,4294966792,2063,4294964163,12273,7835,8220,4294964998,3808,4294967262,15727,4294963991,5174,968,4093,712,4294966717,4294966717,4294966717
55708949,6464469,6478548,16081,2115,2242,4294966767,2141,4294964196,12391,7838,8286,4294964921,3811,4294967197,15578,4294963913,5072,954,4120,646,4294966719,4294966719,4294966719
55714949,6464046,6478186,16054,2142,2234,4294966816,2156,4294964201,12436,7776,8343,4294964873,3837,4294967218,15496,4294963888,5065,857,4166,611,4294966719,4294966719,4294966719
55720950,6465550,6477993,15965,2269,2360,4294966797,2160,4294964189,12425,7719,8288,4294964858,3878,4294967262,15387,4294963937,5158,756,4175,552,4294966722,4294966722,4294966722
55726956,6465176,6477374,15899,2356,2443,4294966866,2113,4294964166,12428,7708,8294,4294964905,3948,4294967253,15449,4294963961,5169,750,4172,611,4294966712,4294966712,4294966712
55732957,6463412,6477236,15860,2545,2450,4294966925,2058,4294964165,12362,7637,8373,4294964970,4025,4294967294,15426,4294963954,5188,762,4242,675,4294966712,4294966712,4294966712
55738953,6464026,6477316,15826,2836,2518,4294966942,2076,4294964165,12325,7667,8502,4294964925,4027,11,15342,4294963981,5335,709,4314,752,4294966718,4294966718,4294966718
55744951,6464522,6476814,15708,2881,2472,4294966913,2063,4294964196,12264,7587,8645,4294964983,4025,16,15273,4294963887,5320,697,4306,856,4294966717,4294966717,4294966717
55750950,6462963,6476614,15762,2977,2564,4294966872,2062,4294964220,12222,7623,8826,4294965102,3965,71,15209,4294963997,5420,670,4367,977,4294966722,4294966722,4294966722
55756958,6462942,6476380,15612,2974,2605,4294966765,2002,4294964279,12196,7628,8927,4294965209,3937,92,15202,4294964015,5559,547,4377,1078,4294966715,4294966715,4294966715
55762953,6463540,6475658,15624,3055,2603,4294966783,1885,4294964303,12118,7631,8922,4294965251,3946,105,15204,4294963974,5572,409,4412,1131,4294966718,4294966718,4294966718
55768949,6462288,6475245,15706,2973,2611,4294966758,1834,4294964357,11993,7586,8924,4294965307,3834,135,15222,4294963994,5793,294,4438,1149,4294966719,4294966719,4294966719
55774953,6462071,6475232,15707,2952,2676,4294966787,1714,4294964382,11896,7586,8899,4294965314,3803,169,15273,4294963864,5895,260,4377,1180,4294966720,4294966720,4294966720
55780959,6462886,6474736,15796,2944,2774,4294966715,1758,4294964354,11876,7551,8896,4294965273,3689,208,15141,4294963812,6100,280,4259,1142,4294966711,4294966711,4294966711
55786952,6461787,6474336,15789,2773,2732,4294966750,1743,4294964306,11888,7486,9064,4294965296,3578,153,15160,4294963702,6101,309,4109,1048,4294966720,4294966720,4294966720
55792956,6460845,6473997,15751,2810,2816,4294966909,1724,4294964212,11879,7382,9310,4294965351,3644,135,15256,4294963747,6016,260,4034,900,4294966717,4294966717,4294966717
55798955,6462089,6473882,15701,3002,2983,4294966842,1769,4294964219,11810,7362,9574,4294965469,3589,130,15097,4294963816,6039,198,4059,894,4294966717,4294966717,4294966717
55804956,6462259,6473825,15747,3012,3108,4294966558,1799,4294964200,11745,7345,9575,4294965589,3554,140,15075,4294963937,6203,144,4053,847,4294966714,4294966714,4294966714
55810970,6461071,6473593,15817,3053,3088,4294966439,1839,4294964198,11751,7401,9610,4294965711,3412,174,15018,4294963864,6389,97,3947,822,4294966709,4294966709,4294966709
55816946,6460743,6473463,15830,3017,3060,4294966521,1874,4294964257,11842,7346,9590,4294965722,3295,273,15057,4294963797,6503,156,3898,752,4294966721,4294966721,4294966721
55822944,6461689,6473104,15711,3100,3022,4294966593,1943,4294964288,11835,7367,9571,4294965523,3273,212,14973,4294963836,6509,308,3845,754,4294966725,4294966725,4294966725
55828955,6461244,6473194,15648,3187,3085,4294966814,1958,4294964409,11857,7424,9457,4294965401,3321,233,14975,4294963853,6553,418,3861,734,4294966714,4294966714,4294966714
55834939,6460883,6473175,15581,3323,3128,4294967039,1957,4294964520,11769,7330,9543,4294965310,3285,239,14890,4294963763,6469,364,3909,719,4294966727,4294966727,4294966727
55840957,6462248,6472778,15377,3405,3158,4294967087,1868,4294964631,11722,7264,9521,4294965268,3140,175,14919,4294963757,6474,376,3964,734,4294966713,4294966713,4294966713
55846950,6462248,6472879,15315,3493,3218,4294967130,1749,4294964792,11800,7241,9683,4294965278,3048,185,14829,4294963698,6618,367,4003,711,4294966722,4294966722,4294966722
55852961,6460853,6472228,15163,3348,3051,4294967107,1642,4294964855,11569,7106,9785,4294965207,2997,160,14793,4294963700,6803,374,3971,753,4294966709,4294966709,4294966709
55858958,6461954,6471700,15151,3441,3158,4294967093,1440,4294964910,11785,7206,9706,4294965170,2903,144,14689,4294963685,6847,354,3911,733,4294966715,4294966715,4294966715
55864948,6462010,6471642,15167,3301,3083,4294966901,1315,4294964940,11587,7132,9885,4294965092,2822,169,14724,4294963539,6907,286,3868,734,4294966720,4294966720,4294966720
55870956,6460876,6471818,15250,3263,2952,4294966798,1252,4294964932,11534,7135,9797,4294965224,2654,154,14685,4294963496,6821,303,3816,714,4294966719,4294966719,4294966719
55876940,6460944,6471916,15250,3175,2938,4294966626,1246,4294964883,11514,7109,9977,4294965224,2646,164,14699,4294963544,6783,394,3791,665,4294966725,4294966725,4294966725
55882944,6462027,6471771,15353,3174,2981,4294966550,1251,4294964848,11445,7169,10060,4294965391,2534,182,14723,4294963533,6816,469,3718,686,4294966724,4294966724,4294966724
55888964,6461601,6471851,15363,3182,2883,4294966497,1275,4294964802,11417,7157,10098,4294965472,2544,174,14606,4294963617,6897,595,3636,668,4294966712,4294966712,4294966712
55894971,6460694,6472152,15419,3173,2909,4294966635,1277,4294964782,11400,7005,10052,4294965410,2621,243,14581,4294963674,6934,681,3515,651,4294966705,4294966705,4294966705
55900954,6462224,6472722,15352,3368,3082,4294966751,1335,4294964854,11288,6950,10130,4294965797,2425,294,14618,4294963777,6921,617,3467,721,4294966718,4294966718,4294966718
55906966,6461912,6472373,15354,3372,3290,4294966756,1243,4294964889,11403,6926,10116,4294965683,2500,344,14462,4294963726,6990,517,3461,764,4294966709,4294966709,4294966709
55912945,6460741,6472334,15399,3577,3249,4294967067,1031,4294964980,11401,6871,10113,4294965783,2468,256,14503,4294963686,7057,405,3348,889,4294966721,4294966721,4294966721
55918951,6462031,6472914,15368,3649,3310,4294967009,1042,4294965052,11373,6966,10178,4294965702,2564,232,14448,4294963689,7200,335,3355,889,4294966715,4294966715,4294966715
55924944,6462973,6473934,15387,3700,3495,4294967013,978,4294965145,11418,6955,10096,4294965583,2696,210,14418,4294963546,7214,263,3329,955,4294966726,4294966726,4294966726
55930958,6461189,6473523,15362,3757,3487,4294966943,917,4294965197,11185,6735,10268,4294965602,2483,229,14570,4294963498,7215,336,3337,959,4294966713,4294966713,4294966713
55936954,6461634,6473153,15462,3743,3339,4294966853,863,4294965268,11406,6889,10225,4294965585,2399,206,15743,4294963428,7047,439,3603,1082,4294966717,4294966717,4294966717
55942953,6462418,6473293,15543,3643,3343,4294966903,907,4294965391,11484,6923,10232,4294965558,2374,164,13636,4294962552,7699,1848,3535,2789,4294966720,4294966720,4294966720
55948944,6461607,6473801,15470,3582,3364,4294966848,925,4294965469,11322,6799,10344,4294965715,2385,233,14733,4294964013,7383,1305,3139,985,4294966725,4294966725,4294966725
55954967,6461172,6473712,15477,3583,3266,4294966847,929,4294965551,11491,7055,10310,4294965637,2360,155,14585,4294963762,7624,650,3321,832,4294966708,4294966708,4294966708
55960957,6462509,6473744,15496,3548,3258,4294966759,874,4294965578,11440,6909,10466,4294965664,2343,143,14455,4294963578,7712,400,3517,869,4294966716,4294966716,4294966716
55966956,6462409,6473586,15428,3450,3308,4294966782,885,4294965652,11241,6881,10591,4294965722,2312,112,14479,4294963597,7519,159,3622,959,4294966714,4294966714,4294966714
55972938,6461156,6473881,15424,3510,3398,4294966883,862,4294965735,11423,6937,10574,4294965789,2251,9,14385,4294963645,7377,80,3806,983,4294966727,4294966727,4294966727
55978950,6461953,6473879,15364,3497,3409,4294966926,860,4294965774,11225,6800,10733,4294965689,2228,32,14367,4294963642,7262,34,3953,1015,4294966717,4294966717,4294966717
55984969,6462788,6473854,15355,3597,3330,4294967035,767,4294965842,11092,6879,10695,4294965758,2153,0,14395,4294963610,7256,20,4051,1020,4294966708,4294966708,4294966708
55990944,6461501,6474274,15257,3765,3324,4294967068,657,4294965910,11233,6820,10606,4294965754,2119,10,14329,4294963526,7404,121,4137,1001,4294966722,4294966722,4294966722
55996945,6462039,6474136,15229,3814,3356,4294967022,549,4294966010,11142,6797,10462,4294965682,2190,14,14329,4294963469,7527,191,4062,928,4294966725,4294966725,4294966725
56002946,6462837,6474076,15263,3880,3298,4294966995,451,4294966080,11219,6707,10571,4294965688,2268,4294967201,14308,4294963478,7734,198,3858,896,4294966720,4294966720,4294966720
56008939,6461580,6474185,15124,3848,3335,4294967023,338,4294966140,10889,6741,10654,4294965704,2195,4294967161,14277,4294963480,7782,259,3506,874,4294966725,4294966725,4294966725
56014952,6461553,6474221,15235,3825,3306,4294967088,312,4294966180,10555,6660,10638,4294965783,1995,4294967123,14238,4294963523,7688,255,3353,786,4294966717,4294966717,4294966717
56020952,6463072,6474517,15246,3792,3385,4294967089,370,4294966163,11018,6735,10480,4294965891,1601,4294967198,14172,4294963521,7510,405,3153,727,4294966716,4294966716,4294966716
56026951,6463336,6474650,15232,3746,3294,4294966944,422,4294966120,11065,6631,10525,4294965681,1626,4294967183,13997,4294963529,7475,420,3020,687,4294966720,4294966720,4294966720
56032964,6461856,6474427,15238,3568,3054,4294966881,534,4294966040,11062,6765,10678,4294965436,1564,4294967114,13963,4294963583,7527,336,2868,696,4294966710,4294966710,4294966710
56038955,6462372,6474306,15250,3552,3137,4294966862,716,4294965972,10812,6604,10683,4294965513,1385,4294967074,13813,4294963585,7575,230,2666,684,4294966715,4294966715,4294966715
56044966,6462992,6474046,15164,3521,3223,4294966715,919,4294965965,11095,6746,10527,4294965664,1353,4294967147,13880,4294963655,7563,148,2568,605,4294966709,4294966709,4294966709
56050948,6461286,6473868,15176,3389,3399,4294966594,1013,4294965958,11122,6735,10578,4294965661,1385,4294967112,13751,4294963588,7647,115,2399,564,4294966721,4294966721,4294966721
56056948,6461878,6474281,15235,3343,3397,4294966705,1029,4294965977,11121,6790,10651,4294965735,1277,4294967085,13718,4294963673,7606,136,2353,435,4294966722,4294966722,4294966722
56062941,6463089,6474424,15218,3262,3516,4294966752,1038,4294966001,11189,6866,10483,4294965550,1356,4294967134,13633,4294963621,7642,74,2227,425,4294966721,4294966721,4294966721
56068947,6461935,6474253,15185,3315,3525,4294966924,989,4294966044,11070,6750,10469,4294965444,1230,4294967087,13736,4294963580,7754,141,2042,438,4294966721,4294966721,4294966721
56074953,6461685,6474210,15225,3437,3371,4294966956,909,4294966100,11258,6763,10280,4294965337,1297,4294967191,13929,4294963546,7750,274,1996,432,4294966722,4294966722,4294966722
56080937,6462716,6474107,15134,3467,3339,4294966980,862,4294966159,11295,6800,10311,4294965308,1318,4294967184,14171,4294963522,7787,276,2042,435,4294966727,4294966727,4294966727
56086945,6461833,6473695,15149,3492,3312,4294967034,866,4294966226,11311,6771,10267,4294965340,1313,4294967152,14053,4294963534,7857,230,1958,522,4294966719,4294966719,4294966719
56092952,6460675,6473356,15099,3504,3370,4294967069,743,4294966268,11303,6724,10337,4294965304,1379,4294967183,14086,4294963494,7939,235,1981,553,4294966718,4294966718,4294966718
56098966,6462073,6472919,15168,3546,3505,4294966985,624,4294966296,11354,6599,10494,4294965513,1399,4294967215,14240,4294963450,7758,234,1969,649,4294966710,4294966710,4294966710
56104975,6462496,6473122,15252,3489,3407,4294966916,607,4294966355,11362,6626,10541,4294965763,1435,4294967208,14276,4294963482,7826,210,2034,689,4294966708,4294966708,4294966708
56110955,6461026,6472774,15251,3602,3466,4294967031,508,4294966374,11475,6630,10515,4294965805,1417,4294967172,14172,4294963363,7706,184,2097,776,4294966717,4294966717,4294966717
56116945,6461136,6473186,15348,3568,3511,4294966855,560,4294966363,11422,6573,10411,4294965830,1468,4294967200,14216,4294963432,7656,181,2136,775,4294966720,4294966720,4294966720
56122957,6462606,6473416,15468,3648,3451,4294966875,627,4294966353,11379,6528,10451,4294965888,1399,4294967255,14169,4294963486,7684,144,2149,817,4294966715,4294966715,4294966715
56128955,6461986,6473884,15397,3683,3521,4294966969,671,4294966371,11190,6507,10574,4294965818,1390,4294967268,14136,4294963500,7675,113,2141,812,4294966715,4294966715,4294966715
56134945,6461712,6474465,15401,3731,3472,4294967012,686,4294966371,11208,6572,10447,4294965823,1278,4294967226,14043,4294963491,7667,118,2150,843,4294966725,4294966725,4294966725
56140941,6463969,6475208,15305,3612,3538,4294966954,677,4294966298,11224,6551,10444,4294965932,1295,4294967269,13970,4294963372,7664,202,2105,800,4294966722,4294966722,4294966722
56146946,6465500,6476757,15339,3608,3544,4294966990,749,4294966247,11309,6611,10391,4294965945,1361,26,14027,4294963384,7764,292,2111,753,4294966721,4294966721,4294966721
56152942,6466861,6480518,15281,3694,3377,4294966912,786,4294966229,11232,6678,10304,4294965880,1435,4294967264,14004,4294963426,7750,341,2064,701,4294966726,4294966726,4294966726
56158950,6466793,6481168,15341,3686,3402,4294966852,841,4294966229,11088,6589,10390,4294965945,1394,4294967241,13984,4294963492,7754,349,1971,700,4294966722,4294966722,4294966722
56164947,6463200,6474088,15335,3716,3473,4294966805,931,4294966240,11251,6693,10345,4294966013,1428,22,13962,4294963499,7813,343,1889,642,4294966720,4294966720,4294966720
56170959,6458920,6468774,15351,3701,3447,4294966831,929,4294966229,11130,6493,10456,4294965831,1415,2,14031,4294963523,7878,318,1771,612,4294966718,4294966718,4294966718
56176962,6458017,6469551,15249,3734,3532,4294966870,948,4294966213,11291,6607,10552,4294966029,1395,29,14071,4294963481,7953,294,1661,566,4294966711,4294966711,4294966711
56182971,6459050,6470408,15353,3775,3585,4294966921,965,4294966221,11220,6621,10793,4294966040,1321,48,14091,4294963514,7958,324,1578,533,4294966705,4294966705,4294966705
56188956,6459657,6471080,15366,3798,3631,4294967013,952,4294966200,11195,6626,10571,4294966124,1233,4294967200,14080,4294963524,7977,265,1482,532,4294966719,4294966719,4294966719
56194961,6459656,6471370,15446,3868,3510,4294967169,987,4294966237,11335,6604,10424,4294965956,1159,4294967260,14051,4294963463,8179,158,1401,536,4294966713,4294966713,4294966713
56200952,6461595,6472957,15428,3952,3377,4294967279,1012,4294966280,11308,6517,10435,4294965914,1178,4294967233,14112,4294963507,8067,213,1288,449,4294966714,4294966714,4294966714
56206953,6462528,6473647,15420,4014,3301,4,1099,4294966375,11222,6490,10571,4294966114,1278,4294967232,14060,4294963472,8010,323,1262,426,4294966721,4294966721,4294966721
56212968,6461421,6473499,15388,3935,3283,4294967267,1193,4294966405,11132,6460,10715,4294966293,1302,4294967181,14032,4294963485,8219,383,1210,364,4294966710,4294966710,4294966710
56218955,6462517,6473684,15251,3872,3358,4294967167,1285,4294966429,11004,6477,10753,4294966469,1197,4294967166,14017,4294963522,8353,407,1129,337,4294966716,4294966716,4294966716
56224945,6462931,6473529,15168,3797,3540,4294967033,1355,4294966401,10896,6491,10743,4294966548,1116,4294967143,14002,4294963536,8170,443,1067,304,4294966722,4294966722,4294966722
56230948,6461422,6473503,15021,3686,3704,4294966914,1329,4294966363,10878,6489,11013,4294966602,1016,4294967179,13892,4294963605,8060,461,1044,286,4294966724,4294966724,4294966724
56236948,6462028,6473762,14943,3628,3687,4294966819,1232,4294966306,10786,6393,11092,4294966682,1025,4294967226,13768,4294963613,7992,460,1044,289,4294966723,4294966723,4294966723
56242950,6463176,6474105,14958,3610,3642,4294966818,1061,4294966261,10810,6381,11167,4294966726,972,4294967242,13831,4294963609,7997,393,1077,254,4294966719,4294966719,4294966719
56248952,6462500,6474147,14991,3686,3517,4294966911,829,4294966272,10811,6419,11072,4294966691,882,4294967239,13846,4294963589,8251,429,1001,216,4294966717,4294966717,4294966717
56254956,6462351,6474342,15003,3721,3399,4294967089,615,4294966273,10750,6379,10843,4294966651,773,4294967227,13699,4294963447,8209,481,842,186,4294966716,4294966716,4294966716
56260954,6463149,6474367,14969,3884,3412,4294967271,463,4294966307,10816,6377,10629,4294966616,696,4294967244,13691,4294963507,8132,574,758,174,4294966717,4294966717,4294966717
56266953,6463681,6474661,14931,4077,3295,84,463,4294966379,10809,6339,10694,4294966585,640,4294967181,13656,4294963553,8061,585,730,166,4294966715,4294966715,4294966715
56272946,6462539,6475057,14925,4080,3284,96,532,4294966400,10870,6275,10673,4294966676,678,4294967167,13660,4294963630,8087,475,720,207,4294966722,4294966722,4294966722
56278944,6463835,6475420,14908,4111,3134,4294967278,701,4294966413,10929,6309,10860,4294966811,657,4294967131,13623,4294963636,8097,244,697,226,4294966726,4294966726,4294966726
56284967,6464819,6475731,14948,4139,3282,4294967141,967,4294966400,10861,6339,11062,4294966953,626,4294967084,13759,4294963549,8363,113,695,244,4294966705,4294966705,4294966705
56290947,6463281,6475559,14927,4128,3335,4294967048,1156,4294966406,10927,6376,11097,4294967053,504,4294967049,13760,4294963547,8165,5,659,224,4294966722,4294966722,4294966722
56296957,6464274,6476557,14974,4186,3486,4294966998,1290,4294966464,10828,6519,11247,4294967187,378,4294967011,13800,4294963575,8319,4294967232,555,207,4294966716,4294966716,4294966716
56302957,6464945,6476041,14856,4135,3658,4294966996,1315,4294966508,10793,6608,11178,4294967250,290,4294967032,13858,4294963597,8319,4294967176,426,196,4294966716,4294966716,4294966716
56308945,6463343,6475543,14916,4136,3918,4294967000,1254,4294966554,10887,6631,11098,25,245,4294966987,13916,4294963640,8284,4294967101,288,133,4294966722,4294966722,4294966722
56314952,6463502,6476016,14952,4063,4110,4294967037,1112,4294966561,10918,6617,11072,37,224,4294966970,13971,4294963679,8193,4294967082,206,172,4294966716,4294966716,4294966716
56320945,6465043,6476276,14978,4179,4165,4294967187,832,4294966605,10903,6665,11049,89,248,4294966990,13993,4294963581,8189,4294967137,159,163,4294966723,4294966723,4294966723
56326950,6464852,6476122,15052,4248,4160,4294967080,583,4294966696,10955,6684,11028,188,264,4294967004,14146,4294963569,8133,4294967270,116,140,4294966716,4294966716,4294966716
56332951,6463426,6476188,15101,4355,4097,4294967054,327,4294966787,10967,6678,10981,236,334,4294967039,14197,4294963599,8273,4294967259,102,122,4294966718,4294966718,4294966718
56338941,6464451,6476789,15211,4352,4058,4294966999,144,4294966889,10991,6634,11005,271,364,4294967059,14185,4294963559,8436,4294967270,97,108,4294966723,4294966723,4294966723
56344933,6465737,6477407,15266,4367,4138,4294967065,15,4294966963,11019,6583,11109,299,361,4294967068,14172,4294963412,8281,96,79,57,4294966731,4294966731,4294966731
56350958,6464092,6477213,15280,4409,3979,4294967129,4294967275,4294966996,11039,6596,10979,225,331,4294967079,14098,4294963432,8238,266,75,18,4294966718,4294966718,4294966718
56356951,6464490,6477484,15249,4395,4005,4294967154,4294967255,4294967023,11026,6630,11054,112,262,4294967079,14191,4294963418,8261,277,95,4,4294966719,4294966719,4294966719
56362957,6466202,6477607,15254,4454,4019,4294967126,4294967250,4294967069,11093,6583,10968,57,235,4294967074,14116,4294963411,8239,265,141,4294967282,4294966717,4294966717,4294966717
56368960,6465215,6477559,15250,4440,3913,4294967064,4294967254,4294967091,11114,6570,10933,4294967292,209,4294967061,14070,4294963383,8226,259,161,4294967268,4294966712,4294966712,4294966712
56374971,6464258,6477267,15213,4447,3913,4294967019,4294967261,4294967086,11163,6531,10960,22,213,4294967061,14073,4294963403,8187,256,231,4294967282,4294966708,4294966708,4294966708
56380953,6466171,6477921,15193,4476,3902,4294966939,4294967263,4294967110,11078,6555,10995,46,192,4294967032,14018,4294963505,8182,174,272,4294967257,4294966718,4294966718,4294966718
56386964,6465413,6477438,15188,4393,3989,4294966908,4294967268,4294967088,11098,6487,11086,135,144,4294967002,14048,4294963535,8201,133,302,2,4294966712,4294966712,4294966712
56392940,6464180,6476921,15198,4413,3962,4294966874,4294967277,4294967034,11069,6529,11075,248,138,4294966952,14061,4294963555,8109,93,293,14,4294966727,4294966727,4294966727
56398958,6466986,6478432,15173,4379,4000,4294966841,7,4294966997,10984,6539,11006,343,125,4294966977,14021,4294963562,8163,21,325,20,4294966714,4294966714,4294966714
56404958,6468057,6479061,15185,4386,3974,4294966775,31,4294966936,10947,6542,11013,400,141,4294966930,14012,4294963551,8200,13,292,40,4294966713,4294966713,4294966713
56410957,6466744,6478815,15162,4353,4046,4294966748,31,4294966867,10943,6579,11060,442,141,4294966948,14040,4294963494,8234,18,252,10,4294966714,4294966714,4294966714
56416943,6465578,6477926,15103,4406,3986,4294966732,4294967291,4294966803,10979,6559,11044,458,141,4294966969,13964,4294963499,8258,4294967277,157,7,4294966724,4294966724,4294966724
56422950,6466413,6477308,15050,4346,4118,4294966750,4294967245,4294966747,11031,6564,11057,501,148,4294966984,14001,4294963414,8342,4294967283,64,4294967293,4294966716,4294966716,4294966716
56428958,6465350,6476749,15004,4370,4171,4294966794,4294967192,4294966756,11013,6548,11068,491,166,4294967001,14027,4294963437,8382,4294967263,14,5,4294966715,4294966715,4294966715
56434955,6464194,6476268,15095,4500,4086,4294966774,4294967140,4294966805,10932,6534,11060,550,153,4294967028,13950,4294963492,8272,54,4294967249,4294967268,4294966715,4294966715,4294966715
56440955,6465224,6476065,14823,4381,4256,4294966775,4294967107,4294966877,10983,6645,11056,521,125,4294967024,13917,4294963476,8362,76,4294967182,4294967245,4294966720,4294966720,4294966720
56446961,6464978,6475983,14855,4400,4245,4294966866,4294967009,4294966916,10964,6685,11029,445,68,4294967068,13934,4294963410,8352,96,4294967168,4294967281,4294966714,4294966714,4294966714
56452953,6463111,6475175,14799,4436,4193,4294966892,4294967029,4294967016,10950,6684,11067,312,3,4294967064,13965,4294963499,8352,117,4294967142,4294967277,4294966718,4294966718,4294966718
56458962,6464052,6474900,14755,4435,4224,4294966930,4294966977,4294967088,10905,6653,11121,218,4294967239,4294967120,13952,4294963528,8152,106,4294967066,4294967288,4294966709,4294966709,4294966709
56466953,6464381,6475217,14840,4466,4159,4294966948,4294966954,4294967221,10931,6583,11310,374,4294967236,4294967168,13946,4294963605,8066,66,4294967095,23,4294966721,4294966721,4294966721
56472951,6463077,6475503,14853,4279,4184,4294966913,4294966867,4294967259,10964,6604,11316,519,4294967224,4294967180,13958,4294963529,8372,6,4294967094,50,4294966721,4294966721,4294966721
56478964,6463582,6474900,15021,4388,4109,4294966940,4294966791,1,10878,6653,11197,611,4294967200,4294967209,13996,4294963376,8573,64,4294967014,48,4294966710,4294966710,4294966710
56484966,6464241,6474751,15109,4401,4031,4294966923,4294966819,99,10865,6691,11209,618,4294967147,4294967233,14009,4294963385,8510,187,4294966950,1,4294966711,4294966711,4294966711
56490964,6462297,6474185,15091,4299,4058,4294966998,4294966766,146,10900,6716,11186,555,4294967145,4294967217,13967,4294963416,8477,290,4294966880,4294967261,4294966710,4294966710,4294966710
56496962,6462607,6474240,15016,4333,4150,4294967079,4294966783,175,10919,6681,11172,431,4294967096,4294967215,13970,4294963439,8339,295,4294966888,4294967274,4294966709,4294966709,4294966709
56502962,6463506,6474169,15056,4338,4097,4294967154,4294966795,203,10981,6747,11193,378,4294967053,4294967165,14003,4294963532,8369,270,4294966910,1,4294966713,4294966713,4294966713
56508965,6462567,6474150,15090,4346,4058,4294967266,4294966795,232,10981,6729,11273,298,4294967030,4294967124,14043,4294963500,8324,176,4294966984,60,4294966709,4294966709,4294966709
56514968,6461977,6473943,15151,4408,4146,4294967295,4294966795,267,10928,6728,11244,283,4294966925,4294967121,13996,4294963482,8305,85,4294967066,101,4294966707,4294966707,4294966707
56520955,6463238,6473838,15041,4361,4177,4294967166,4294966834,309,10956,6666,11249,256,4294966830,4294967124,14013,4294963459,8433,49,4294967087,109,4294966717,4294966717,4294966717
56526949,6463027,6473801,15052,4292,4211,4294967083,4294966798,278,10921,6656,11189,234,4294966763,4294967137,13983,4294963409,8445,21,4294967045,130,4294966718,4294966718,4294966718
56532951,6461666,6474032,15033,4251,4187,4294966926,4294966804,259,10984,6655,11167,238,4294966643,4294967164,13973,4294963382,8458,52,4294966959,115,4294966719,4294966719,4294966719
56538962,6462631,6474344,15001,4172,4179,4294966887,4294966737,210,11008,6643,11125,273,4294966572,4294967191,13955,4294963437,8273,95,4294966908,134,4294966713,4294966713,4294966713
56544979,6463436,6474286,14990,4114,4133,4294966915,4294966719,208,11020,6566,11100,279,4294966536,4294967203,13971,4294963407,8221,111,4294966855,126,4294966703,4294966703,4294966703
56550951,6462321,6474398,15004,4143,4084,4294966933,4294966734,218,10981,6604,11115,255,4294966511,4294967262,14013,4294963428,8067,97,4294966802,136,4294966718,4294966718,4294966718
56556957,6462324,6474530,14977,4095,4056,4294967010,4294966748,242,11045,6621,11150,251,4294966469,4294967272,13969,4294963509,8012,68,4294966769,172,4294966715,4294966715,4294966715
56562965,6463478,6474505,14976,4112,4110,4294967101,4294966707,297,11148,6664,11186,259,4294966443,26,13959,4294963548,8071,38,4294966698,180,4294966712,4294966712,4294966712
56568955,6462403,6474280,15056,4120,4129,4294967163,4294966680,385,11042,6722,11175,280,4294966364,57,13964,4294963511,8058,4294967289,4294966598,204,4294966717,4294966717,4294966717
56574954,6461930,6474552,15061,4174,4169,4294967232,4294966634,430,11025,6701,11217,266,4294966317,112,13976,4294963560,7993,4294967273,4294966539,233,4294966719,4294966719,4294966719
56580957,6463016,6474126,15115,4170,4104,4294967216,4294966566,464,11066,6772,11144,275,4294966290,142,13950,4294963512,8014,4294967237,4294966466,222,4294966716,4294966716,4294966716
56586955,6462486,6473952,15200,4144,4088,4294967157,4294966550,496,11159,6788,11044,290,4294966275,204,13987,4294963447,8019,4294967241,4294966446,241,4294966720,4294966720,4294966720
56592944,6461213,6473874,15264,4171,4101,4294967102,4294966547,511,11179,6680,10962,244,4294966295,212,14010,4294963432,7992,4294967256,4294966450,235,4294966722,4294966722,4294966722
56598964,6462724,6473913,15277,4078,4041,4294966961,4294966604,506,11197,6667,10737,188,4294966246,254,14098,4294963350,7907,4294967275,4294966480,237,4294966711,4294966711,4294966711
56604954,6463041,6473823,15303,4081,3990,4294966858,4294966611,505,11298,6555,10811,192,4294966238,228,14157,4294963307,7962,4294967269,4294966525,219,4294966717,4294966717,4294966717
56610940,6461824,6474000,15308,4061,4010,4294966815,4294966669,481,11379,6585,10862,154,4294966237,240,14209,4294963274,8019,4294967211,4294966554,211,4294966727,4294966727,4294966727
56616944,6462131,6474194,15269,4055,4048,4294966837,4294966654,436,11423,6431,10899,224,4294966158,224,14258,4294963193,8105,4294967176,4294966561,190,4294966720,4294966720,4294966720
56622959,6463245,6474164,15235,4092,4043,4294966850,4294966589,365,11437,6431,10983,353,4294966129,207,14280,4294963117,8032,4294967181,4294966602,171,4294966715,4294966715,4294966715
56628959,6462629,6474119,15231,4121,4032,4294966831,4294966472,314,11507,6377,11020,432,4294966096,187,14316,4294963114,8144,4294967200,4294966616,165,4294966718,4294966718,4294966718
56634955,6461926,6474124,15199,4188,4144,4294966867,4294966339,280,11468,6420,10927,574,4294966063,228,14328,4294963115,8258,4294967183,4294966637,178,4294966717,4294966717,4294966717
56640952,6463286,6474329,15215,4208,4041,4294966824,4294966173,244,11453,6408,11002,605,4294966013,238,14370,4294963087,8256,4294967234,4294966674,212,4294966718,4294966718,4294966718
56646961,6463343,6474592,15227,4224,4007,4294966803,4294965990,242,11393,6405,10914,549,4294966005,243,14338,4294963140,8338,4294967283,4294966722,236,4294966711,4294966711,4294966711
56652957,6462378,6474709,15167,4185,4014,4294966725,4294965823,259,11457,6430,10770,575,4294966013,244,14312,4294963177,8331,3,4294966750,287,4294966716,4294966716,4294966716
56658955,6463433,6474881,15183,4229,3876,4294966688,4294965662,262,11413,6346,10859,635,4294966071,232,14237,4294963174,8283,60,4294966767,319,4294966714,4294966714,4294966714
56664954,6463349,6474532,15240,4095,3868,4294966724,4294965536,332,11326,6324,10930,707,4294966099,225,14179,4294963230,8340,165,4294966763,340,4294966713,4294966713,4294966713
56670952,6461548,6474165,15272,4152,3839,4294966771,4294965469,361,11295,6243,10992,819,4294966088,228,14131,4294963209,8350,194,4294966723,338,4294966716,4294966716,4294966716
56676953,6461628,6474242,15221,4105,3667,4294966873,4294965429,425,11257,6270,11022,923,4294966108,179,14049,4294963321,8246,215,4294966703,329,4294966719,4294966719,4294966719
56682952,6463606,6474531,15281,4157,3684,4294967020,4294965408,526,11188,6181,10872,1042,4294966188,179,14017,4294963313,8192,176,4294966676,301,4294966720,4294966720,4294966720
56688959,6463008,6474496,15176,4148,3785,4294967034,4294965426,594,11094,6211,10812,1140,4294966267,165,13943,4294963282,8187,147,4294966635,259,4294966711,4294966711,4294966711
56694951,6462119,6474733,15212,4043,3689,4294967207,4294965468,682,11086,6242,10775,1190,4294966401,112,13950,4294963304,8207,116,4294966580,218,4294966717,4294966717,4294966717
56700952,6463434,6475022,15063,3992,3786,157,4294965582,741,10987,6259,10737,1240,4294966388,90,13772,4294963350,8195,129,4294966487,148,4294966719,4294966719,4294966719
56706952,6463321,6474867,14885,3909,3847,147,4294965650,806,10957,6257,10751,1246,4294966428,92,13783,4294963352,8156,88,4294966351,128,4294966721,4294966721,4294966721
56712957,6461589,6474444,14857,3794,3940,239,4294965710,835,10983,6297,10700,1281,4294966400,60,13724,4294963333,8164,36,4294966254,64,4294966715,4294966715,4294966715
56718964,6462928,6474801,14754,3773,3969,297,4294965750,895,10985,6379,10697,1317,4294966355,77,13707,4294963364,8093,4294967258,4294966122,24,4294966711,4294966711,4294966711
56724947,6463458,6474766,14729,3735,3876,359,4294965737,957,10970,6392,10732,1355,4294966293,83,13659,4294963347,7970,4294967233,4294966008,4294967277,4294966720,4294966720,4294966720
56730950,6462111,6474838,14723,3740,3812,384,4294965767,1046,10841,6371,10705,1427,4294966211,66,13698,4294963368,8022,4294967253,4294965895,4294967234,4294966717,4294966717,4294966717
56736962,6462701,6474733,14790,3652,3697,392,4294965758,1140,11017,6419,10623,1458,4294966132,42,13712,4294963398,8000,4294967268,4294965763,4294967202,4294966709,4294966709,4294966709
56742955,6463741,6474713,14789,3644,3726,474,4294965779,1208,10987,6446,10593,1433,4294966097,4294967241,13774,4294963449,7964,4294967255,4294965641,4294967169,4294966717,4294966717,4294966717
56750939,6462058,6474106,14843,3656,3690,429,4294965853,1256,11021,6467,10558,1533,4294966025,4294967147,13738,4294963449,7920,4294967120,4294965468,4294967151,4294966726,4294966726,4294966726
56758937,6462104,6473226,14818,3682,3577,451,4294965920,1311,10967,6388,10707,1558,4294966021,4294967141,13849,4294963396,7906,4294967084,4294965288,4294967147,4294966729,4294966729,4294966729
56766944,6463159,6474001,14960,3787,3612,462,4294965968,1349,11065,6491,10670,1705,4294965882,4294967117,13923,4294963395,7764,4294967126,4294965062,4294967117,4294966724,4294966724,4294966724
56774944,6461114,6472696,15020,3970,3570,546,4294965957,1442,11176,6554,10718,1833,4294965703,4294967088,13984,4294963396,7902,4294967120,4294964938,4294967109,4294966722,4294966722,4294966722
56782952,6462969,6473803,15136,4124,3605,644,4294965877,1557,11235,6560,10692,1857,4294965624,4294967110,14054,4294963313,7883,4294967084,4294964780,4294967113,4294966716,4294966716,4294966716
56790947,6461698,6473372,15174,4230,3536,581,4294965763,1639,11232,6615,10624,1897,4294965508,4294967054,14082,4294963344,7860,4294967113,4294964671,4294967101,4294966720,4294966720,4294966720
56798944,6462106,6473796,15333,4261,3492,537,4294965695,1715,11313,6607,10501,1927,4294965419,4294967064,14140,4294963305,7811,4294967110,4294964629,4294967082,4294966725,4294966725,4294966725
56806958,6462628,6474373,15415,4311,3412,380,4294965637,1799,11349,6660,10484,1994,4294965425,4294967031,14271,4294963275,7754,4294967118,4294964636,4294967047,4294966715,4294966715,4294966715
56814948,6463269,6475699,15313,4197,3405,250,4294965619,1805,11511,6683,10317,2074,4294965428,4294967088,14354,4294963307,7543,4294967089,4294964640,4294967044,4294966721,4294966721,4294966721
56822956,6467563,6478126,15331,4034,3503,127,4294965572,1775,11548,6693,10331,2074,4294965441,4294967106,14479,4294963248,7479,4294967044,4294964668,4294967070,4294966719,4294966719,4294966719
56830955,6466352,6481097,15449,3951,3586,102,4294965454,1719,11598,6676,10256,2129,4294965359,4294967118,14506,4294963214,7468,4294966954,4294964706,4294967096,4294966716,4294966716,4294966716
56838945,6462839,6475059,15457,3876,3531,32,4294965393,1749,11790,6777,10188,2144,4294965402,4294967191,14603,4294963208,7314,4294966969,4294964665,4294967099,4294966722,4294966722,4294966722
56844971,6460388,6469558,15438,3839,3599,4294967256,4294965312,1769,11839,6890,10243,2181,4294965408,4294967224,14585,4294963133,7283,4294966977,4294964616,4294967085,4294966707,4294966707,4294966707
56852955,6456245,6468487,15389,3685,3449,4294967144,4294965130,1799,11894,6766,10309,2262,4294965409,4294967267,14574,4294963208,7169,4294967027,4294964609,4294967096,4294966719,4294966719,4294966719
56860981,6459096,6470550,15574,3502,3484,4294967280,4294964974,1857,11917,6794,10140,2294,4294965355,4294967263,14578,4294963254,7263,4294967006,4294964565,4294967095,4294966697,4294966697,4294966697
56868951,6460071,6472206,15585,3468,3422,205,4294964889,1900,12006,6903,9877,2206,4294965272,4294967272,14524,4294963236,7120,4294967058,4294964540,4294967108,4294966722,4294966722,4294966722
56874957,6460564,6473745,15515,3433,3300,394,4294964809,1940,11763,6818,9849,2000,4294965301,4294967271,14535,4294963296,6969,4294967150,4294964586,4294967076,4294966716,4294966716,4294966716
56880951,6462108,6473535,15452,3341,3190,431,4294964638,1978,11585,6801,9880,2026,4294965338,1,14429,4294963394,6850,4294967180,4294964665,4294967060,4294966719,4294966719,4294966719
56886943,6461754,6473371,15365,3266,3138,573,4294964565,1999,11710,6906,9801,2108,4294965398,4294967277,14499,4294963433,6792,4294967166,4294964648,4294967072,4294966725,4294966725,4294966725
56892942,6461047,6473830,15268,3217,3070,668,4294964504,2003,11517,6863,9706,2118,4294965270,54,14400,4294963357,6790,4294967053,4294964646,4294967088,4294966726,4294966726,4294966726
56898963,6462378,6474059,15142,3215,2994,620,4294964391,1974,11458,6820,9639,2196,4294965098,94,14304,4294963433,6685,4294967033,4294964599,4294967077,4294966711,4294966711,4294966711
56904954,6462931,6474182,15085,3190,2962,565,4294964421,1977,11607,6789,9746,2147,4294965074,102,14407,4294963446,6641,4294966939,4294964538,4294967109,4294966715,4294966715,4294966715
56910948,6462046,6474009,15110,3116,2964,506,4294964384,1972,11618,6955,9794,2191,4294965009,66,14408,4294963488,6545,4294966765,4294964480,4294967133,4294966718,4294966718,4294966718
56916960,6462023,6474342,15149,3098,2795,490,4294964373,2004,11644,6901,9653,2262,4294964935,139,14541,4294963360,6532,4294966880,4294964302,4294967186,4294966715,4294966715,4294966715
56922972,6463053,6474050,15272,3076,2697,525,4294964321,2069,11717,6998,9629,2246,4294964991,164,14418,4294963388,6797,4294966795,4294964304,4294967168,4294966704,4294966704,4294966704
56928952,6462315,6474136,15425,3114,2479,659,4294964269,2184,11595,6953,9478,2196,4294964904,63,14520,4294963447,6701,4294966848,4294964130,4294967133,4294966716,4294966716,4294966716
56934948,6461485,6474216,15426,2953,2241,738,4294964274,2325,11755,7020,9311,2253,4294964877,78,14554,4294963494,6594,4294966884,4294964060,4294967127,4294966720,4294966720,4294966720
56940944,6463059,6474579,15462,2995,2132,1065,4294964293,2382,11685,6955,9273,2258,4294964908,29,14452,4294963530,6510,4294966861,4294964083,4294967147,4294966719,4294966719,4294966719
56946958,6463005,6475002,15491,3108,2094,1124,4294964418,2431,11709,6885,9204,2336,4294964857,27,14489,4294963605,6375,4294966772,4294964101,4294967093,4294966718,4294966718,4294966718
56952960,6461858,6475262,15480,2969,1823,866,4294964620,2429,11757,6893,9196,2249,4294964896,4294967268,14547,4294963565,6345,4294966725,4294964087,4294967155,4294966714,4294966714,4294966714
56960951,6463224,6475913,15554,3048,1847,674,4294964896,2369,11492,6917,9279,2389,4294964658,4294967194,14664,4294963445,6383,4294966625,4294964088,4294967176,4294966720,4294966720,4294966720
56966963,6464450,6477518,15449,2957,1876,362,4294965177,2365,11495,6953,9317,2421,4294964513,4294967193,14539,4294963344,6458,4294966664,4294963885,4294967130,4294966708,4294966708,4294966708
56974957,6462558,6476697,15535,2960,1955,115,4294965348,2279,11419,7037,9190,2573,4294964175,4294967095,14688,4294963332,6425,4294966581,4294963743,4294967099,4294966716,4294966716,4294966716
56982939,6464575,6477988,15459,2853,2108,174,4294965325,2264,11579,7117,9054,2619,4294964080,4294967072,14709,4294963396,6174,4294966658,4294963585,4294966965,4294966725,4294966725,4294966725
56988959,6464704,6478436,15501,2902,2261,202,4294965214,2264,11687,7087,8925,2693,4294964086,4294967073,14647,4294963427,6060,4294966788,4294963442,4294966899,4294966718,4294966718,4294966718
56996943,6463660,6477532,15517,2867,2521,200,4294965050,2275,11687,7072,8827,2861,4294964156,4294967036,14768,4294963549,5738,4294966955,4294963326,4294966816,4294966723,4294966723,4294966723
57002946,6465535,6478575,15633,2871,2617,157,4294964855,2344,11741,7149,8912,3089,4294964097,4294967084,14828,4294963577,5626,4294966944,4294963296,4294966825,4294966722,4294966722,4294966722
57008944,6464234,6478082,15663,2965,2532,34,4294964698,2437,11867,7315,8790,2991,4294964108,4294967101,14732,4294963626,5779,4294966936,4294963274,4294966761,4294966724,4294966724,4294966724
57014953,6463673,6477640,15764,2886,2503,4294967254,4294964507,2510,12002,7374,8775,2814,4294964195,4294967061,14874,4294963622,5762,4294966900,4294963248,4294966739,4294966714,4294966714,4294966714
57022952,6464822,6477378,15883,2894,2339,66,4294964443,2642,11887,7404,8747,2809,4294964215,4294967002,15040,4294963609,5787,4294966914,4294963256,4294966718,4294966717,4294966717,4294966717
57028951,6464999,6478443,15943,2871,2350,122,4294964492,2750,12098,7524,8635,2837,4294964262,4294966927,15212,4294963566,5763,4294966858,4294963297,4294966720,4294966719,4294966719,4294966719
57034960,6463452,6477450,16012,2886,2356,90,4294964553,2836,12226,7468,8743,2635,4294964438,4294966944,15264,4294963504,5662,4294966805,4294963313,4294966706,4294966714,4294966714,4294966714
57040951,6464487,6477185,16061,2829,2237,59,4294964716,2897,12278,7535,8560,2762,4294964413,4294966889,15248,4294963504,5636,4294966628,4294963440,4294966691,4294966718,4294966718,4294966718
57046949,6464238,6476935,16049,2766,2278,91,4294964833,2983,12311,7612,8529,2745,4294964470,4294966837,15174,4294963476,5446,4294966568,4294963494,4294966614,4294966722,4294966722,4294966722
57052958,6462741,6476495,16193,2762,2153,49,4294965014,3034,12367,7639,8363,2591,4294964465,4294966826,15351,4294963450,5388,4294966655,4294963339,4294966638,4294966715,4294966715,4294966715
57058961,6463813,6476528,16230,2702,2044,29,4294965192,3046,12366,7579,8351,2607,4294964435,4294966761,15505,4294963575,5302,4294966575,4294963486,4294966622,4294966711,4294966711,4294966711
57064945,6464209,6476523,16092,2612,2174,112,4294965278,3075,12516,7557,8359,2627,4294964448,4294966756,15553,4294963545,5182,4294966532,4294963614,4294966692,4294966723,4294966723,4294966723
57070951,6462545,6475673,16667,2755,1994,80,4294965262,3115,12451,7613,8408,2631,4294964508,4294966675,15404,4294963577,5218,4294966537,4294963663,4294966647,4294966719,4294966719,4294966719
57076946,6462683,6475091,16062,2539,2134,105,4294965343,3157,12434,7736,8285,2794,4294964521,4294966718,15481,4294963557,5169,4294966610,4294963627,4294966720,4294966719,4294966719,4294966719
57082953,6463360,6475118,15928,2341,2167,124,4294965139,3032,12529,7686,8245,2792,4294964561,4294966681,15557,4294963540,5147,4294966722,4294963674,4294966718,4294966720,4294966720,4294966720
57088960,6462704,6474700,16157,2419,2123,354,4294965097,3011,12530,7765,8359,2975,4294964588,4294966707,15584,4294963500,5091,4294966803,4294963671,4294966769,4294966715,4294966715,4294966715
57096949,6461271,6473598,16006,2462,2218,309,4294965020,2967,12384,7802,8201,2924,4294964567,4294966714,15482,4294963549,5112,4294966877,4294963820,4294966795,4294966722,4294966722,4294966722
57102956,6462893,6474572,16076,2470,2054,348,4294964987,2965,12461,7794,8021,3024,4294964453,4294966777,15545,4294963674,4980,4294966897,4294963819,4294966754,4294966716,4294966716,4294966716
57110962,6461249,6473516,15819,2338,2065,329,4294964724,2921,12589,7852,7978,2930,4294964504,4294966857,15380,4294963603,5048,4294966523,4294964269,4294966762,4294966713,4294966713,4294966713
