t_us,ads_ch1,ads_ch2,ax0,ay0,az0,gx0,gy0,gz0,ax1,ay1,az1,gx1,gy1,gz1,ax2,ay2,az2,gx2,gy2,gz2,dt0_us,dt1_us,dt2_us
525278946,6471805,6478261,16298,4294966787,4294966220,4294966571,4294967088,4294967209,13891,6940,6518,69,338,7,16218,4294963075,1820,4294967132,256,286,4294966722,4294966722,4294966722
525284939,6471356,6477838,16331,4294966875,4294966178,4294966574,4294966968,4294967212,13909,6995,6494,4294967270,285,29,16163,4294963027,2101,4294967241,209,202,4294966727,4294966727,4294966727
525292944,6471305,6477706,16336,4294967038,4294965968,4294966744,4294966817,4294967229,13867,6992,6344,4294967087,169,57,16102,4294962998,2263,323,1,81,4294966723,4294966723,4294966723
525298941,6472648,6479446,16315,4294967076,4294965759,4294967003,4294966756,7,13923,6980,6220,4294966946,75,63,15993,4294963092,2278,567,4294967161,24,4294966727,4294966727,4294966727
525304955,6471650,6478389,16318,4294967148,4294965561,4294967285,4294966754,110,13932,6943,6128,4294966842,4294967238,20,15859,4294963133,2178,647,4294967111,10,4294966715,4294966715,4294966715
525312946,6471432,6478088,16298,4294967129,4294965119,179,4294966878,223,13957,6814,6001,4294966834,4294967200,30,15812,4294963152,2093,442,4294967142,53,4294966721,4294966721,4294966721
525318956,6472856,6479723,16298,4294966972,4294965020,263,4294967113,259,13990,6783,6027,4294966883,4294967222,34,15880,4294963084,2132,194,4294967180,164,4294966716,4294966716,4294966716
525324960,6472134,6478755,16244,4294966812,4294965011,232,117,240,13883,6713,6182,4294967044,4294967233,2,16004,4294963021,2177,16,4294967179,191,4294966712,4294966712,4294966712
525330943,6472364,6479135,16132,4294966700,4294965081,42,389,174,13805,6645,6234,4294967178,4294967250,4294967266,16097,4294962991,2290,4294967228,4294967116,185,4294966725,4294966725,4294966725
525338947,6472920,6479738,15988,4294966532,4294965311,4294967034,576,96,13826,6711,6387,143,4294967293,4294967196,16183,4294963095,2189,4294967278,4294967008,205,4294966722,4294966722,4294966722
525346946,6471856,6478804,15942,4294966415,4294965468,4294966759,455,58,13713,6730,6355,366,56,4294967170,16250,4294963251,2053,60,4294966959,195,4294966723,4294966723,4294966723
525352954,6472824,6479974,15954,4294966434,4294965631,4294966680,234,35,13729,6877,6176,515,122,4294967184,16242,4294963289,1952,250,4294967019,200,4294966717,4294966717,4294966717
525358952,6473167,6480330,16007,4294966496,4294965801,4294966760,4294967182,32,13715,6961,6222,611,219,4294967205,16240,4294963236,1808,325,4294967110,207,4294966718,4294966718,4294966718
525364951,6473281,6480387,16070,4294966665,4294965900,4294966997,4294966848,42,13794,7001,6133,690,329,4294967251,16330,4294963279,1551,398,12,280,4294966718,4294966718,4294966718
525370950,6472936,6479755,16090,4294966851,4294965921,4,4294966557,61,13696,7056,6125,768,432,4294967262,16339,4294963234,1645,384,188,293,4294966717,4294966717,4294966717
525376959,6474074,6481187,16208,4294967037,4294965841,256,4294966380,122,13742,7090,6078,814,544,4294967261,16286,4294963173,1663,358,304,312,4294966713,4294966713,4294966713
525382960,6473958,6481266,16296,4294967200,4294965708,385,4294966284,207,13809,7121,6106,697,619,4294967227,16334,4294963062,1738,368,360,312,4294966714,4294966714,4294966714
525388947,6472967,6480132,16334,40,4294965607,381,4294966339,262,13983,7212,6109,571,620,4294967256,16367,4294963001,1844,428,386,300,4294966719,4294966719,4294966719
525394956,6473845,6480746,16474,31,4294965486,322,4294966499,291,13959,7152,6145,442,529,4294967258,16259,4294962999,1793,478,380,290,4294966716,4294966716,4294966716
525400940,6474330,6481348,16481,33,4294965459,222,4294966699,292,13926,7109,6185,297,352,4294967221,16267,4294963064,1721,510,402,278,4294966725,4294966725,4294966725
525406950,6473379,6480375,16534,0,4294965442,157,4294966906,291,14037,7040,6235,74,256,4294967207,16217,4294963100,1709,489,437,254,4294966717,4294966717,4294966717
525412942,6473317,6480190,16425,4294967195,4294965407,41,4294967026,269,14027,7049,6262,4294967243,243,4294967235,16215,4294963225,1659,442,503,228,4294966726,4294966726,4294966726
525418949,6473828,6480492,16438,4294967119,4294965518,4294967221,4294967100,251,13965,7029,6302,4294967221,177,4294967237,16162,4294963248,1681,337,471,219,4294966720,4294966720,4294966720
525424952,6472742,6479234,16426,4294967101,4294965553,4294967105,4294967116,230,13834,6955,6232,4294967182,185,4294967236,16208,4294963211,1656,272,477,213,4294966720,4294966720,4294966720
525430948,6472442,6479036,16385,4294967044,4294965666,4294967027,4294967088,181,13838,6957,6341,4294967195,196,4294967255,16197,4294963239,1852,198,440,171,4294966720,4294966720,4294966720
525436963,6472897,6479641,16378,4294967035,4294965684,4294966961,4294967042,133,13784,6949,6328,4294967230,249,4294967229,16192,4294963184,1822,163,447,133,4294966711,4294966711,4294966711
525442943,6472941,6479844,16365,4294967082,4294965629,4294966926,4294967016,99,13782,6929,6304,27,288,4294967190,16181,4294963133,1793,230,422,111,4294966723,4294966723,4294966723
525448950,6471951,6478263,16323,4294967048,4294965604,4294966916,4294967026,56,13766,6962,6319,69,357,4294967174,16185,4294963196,1866,292,377,74,4294966718,4294966718,4294966718
525454967,6471843,6478138,16249,4294967032,4294965444,4294966865,4294967038,21,13757,6976,6176,52,439,4294967163,16207,4294963185,1808,331,314,28,4294966711,4294966711,4294966711
525460950,6472459,6478772,16167,4294966981,4294965468,4294966849,4294967088,4294967282,13743,6975,6133,7,478,4294967167,16203,4294963211,1851,369,257,3,4294966722,4294966722,4294966722
525466951,6471325,6477649,16148,4294966932,4294965546,4294966796,4294967101,4294967275,13767,6948,6250,4294967234,507,4294967151,16170,4294963162,1856,391,214,4294967274,4294966718,4294966718,4294966718
525474946,6470971,6477093,16194,4294966976,4294965598,4294966714,4294967042,4294967273,13759,6956,6212,4294967165,543,4294967142,16152,4294963176,2100,285,201,4294967257,4294966719,4294966719,4294966719
525482950,6471507,6477353,16243,4294966920,4294965597,4294966705,4294966977,32,13777,6977,6125,4294967158,641,4294967140,16199,4294963086,2010,283,138,4294967198,4294966717,4294966717,4294966717
525490940,6470776,6476541,16217,4294966861,4294965588,4294966712,4294966899,57,13794,7014,5967,4294967118,732,4294967139,16247,4294963069,2124,226,128,4294967160,4294966727,4294966727,4294966727
525498958,6471876,6477628,16214,4294966818,4294965584,4294966806,4294966857,111,13829,6970,6076,4294967071,769,4294967098,16171,4294963021,1779,286,72,4294967098,4294966711,4294966711,4294966711
525506960,6470568,6476111,16204,4294966733,4294965449,4294966803,4294966805,135,13914,6906,6389,4294967233,759,4294967083,16220,4294963092,1635,281,132,4294967112,4294966714,4294966714,4294966714
525514958,6471299,6477421,16230,4294966552,4294965459,4294966757,4294966719,134,13950,7030,6400,151,730,4294967059,16323,4294963195,1870,360,116,4294967144,4294966716,4294966716,4294966716
525520941,6472304,6478673,16250,4294966523,4294965386,4294966693,4294966665,115,13920,7039,6357,212,709,4294967075,16429,4294963262,2042,410,65,4294967131,4294966726,4294966726,4294966726
525526958,6470790,6476837,16245,4294966564,4294965337,4294966811,4294966686,99,13934,7145,6375,233,707,4294967080,16365,4294963189,2227,487,72,4294967159,4294966711,4294966711,4294966711
525532945,6470863,6476943,16220,4294966576,4294965381,4294966926,4294966720,63,13924,7141,6319,206,678,4294967108,16285,4294963204,2110,651,86,4294967143,4294966722,4294966722,4294966722
525538948,6471544,6477658,16139,4294966532,4294965200,4294967008,4294966761,45,13953,7093,6237,69,640,4294967106,16208,4294963275,2056,758,68,4294967139,4294966720,4294966720,4294966720
525544952,6470846,6476749,16196,4294966526,4294965306,4294967050,4294966856,11,13918,7108,6164,4294967209,618,4294967184,16236,4294963239,2015,791,92,4294967246,4294966720,4294966720,4294966720
525552956,6470998,6476560,16152,4294966459,4294965110,4294967113,4294966976,4294967236,14011,7053,6309,4294967042,576,4294967241,16130,4294963191,2061,809,130,18,4294966716,4294966716,4294966716
525560944,6471615,6477533,16176,4294966435,4294965282,4294967134,4294967046,4294967145,14112,7060,6415,4294967123,404,21,16184,4294963185,2168,744,77,68,4294966720,4294966720,4294966720
525566955,6471075,6477474,16299,4294966595,4294965308,4294967179,4294967020,4294967078,14073,7066,6521,4294967254,253,58,16275,4294963162,2202,725,4294967290,78,4294966715,4294966715,4294966715
525574941,6471292,6477095,16339,4294966636,4294965449,4294967213,4294967013,4294967031,14082,7162,6638,116,112,153,16340,4294963195,2500,874,4294967051,103,4294966721,4294966721,4294966721
525580951,6471709,6477737,16371,4294966746,4294965521,4294967199,4294966968,4294967036,14146,7233,6707,124,4294967251,211,16396,4294963413,2390,974,4294966951,173,4294966721,4294966721,4294966721
525588948,6470372,6476079,16468,4294966818,4294965438,4294967266,4294966827,4294967102,14093,7267,6749,4294967280,4294967083,276,16441,4294963500,2394,1089,4294966917,185,4294966722,4294966722,4294966722
525596961,6471330,6477387,16499,4294966742,4294965366,203,4294966691,4294967117,14119,7219,6880,4294967279,4294966971,420,16344,4294963510,2450,1125,4294966901,294,4294966715,4294966715,4294966715
525604947,6471302,6477300,16444,4294966855,4294965047,667,4294966628,4294967156,13925,7208,6859,243,4294966830,511,16415,4294963624,2295,1212,4294966885,358,4294966722,4294966722,4294966722
525610970,6471388,6477229,16331,4294966878,4294964829,1032,4294966654,4294967222,13875,7505,6691,610,4294966843,605,16404,4294963884,2189,1293,4294966885,355,4294966706,4294966706,4294966706
525616938,6471581,6477401,16356,4294966970,4294964651,1326,4294966771,4294967273,13716,7844,6564,775,4294966921,706,16416,4294963943,2153,1159,4294966945,449,4294966728,4294966728,4294966728
525622951,6471420,6477658,16243,4294967121,4294964598,1438,4294966897,60,13536,8022,6546,1100,4294966979,880,16353,4294963942,2147,1082,4294966916,522,4294966716,4294966716,4294966716
525628951,6470764,6477064,16153,115,4294964766,1411,4294966912,223,13451,8225,6422,1503,4294966990,1020,16412,4294963942,2296,1142,4294966813,668,4294966722,4294966722,4294966722
525634957,6471342,6477517,16327,95,4294964816,1211,4294966835,408,13518,8390,6198,1822,4294966962,1091,16805,4294964144,1993,777,4294966758,576,4294966714,4294966714,4294966714
525640950,6471350,6477492,16445,98,4294964811,1016,4294966706,573,13569,8205,6112,1953,4294966814,1139,16710,4294964253,2008,805,4294966914,696,4294966720,4294966720,4294966720
525646956,6470124,6476044,16580,160,4294964827,885,4294966642,657,14089,8180,5660,2049,4294966689,1140,16249,4294964429,2103,1118,4294966872,787,4294966719,4294966719,4294966719
525652952,6470817,6476829,16779,57,4294964835,805,4294966511,673,14202,8005,5284,2189,4294966757,1225,16456,4294964535,1947,1441,4294966749,935,4294966720,4294966720,4294966720
525658935,6471038,6477248,16744,4294967271,4294964724,825,4294966348,652,14125,7653,5060,2500,4294966711,1156,16506,4294964679,1746,1383,4294966925,888,4294966730,4294966730,4294966730
525664946,6471294,6477460,16709,4294967182,4294964584,801,4294966249,624,14011,7528,4945,2590,4294966919,1190,16414,4294964689,1887,1381,4294967073,944,4294966724,4294966724,4294966724
525670961,6470519,6476576,16641,4294967099,4294964330,852,4294966237,564,14113,7726,5104,2540,4294967085,938,16306,4294964580,1919,1472,4294967158,951,4294966709,4294966709,4294966709
525676951,6470999,6477109,16279,4294967113,4294964282,742,4294966004,571,14077,7844,5241,2229,4294967242,974,16258,4294964564,1943,1495,4294967173,1000,4294966716,4294966716,4294966716
525682950,6470753,6477278,16499,4294967028,4294964131,841,4294966135,472,13865,7802,5561,1825,61,962,16313,4294964551,1887,1302,4294967199,957,4294966720,4294966720,4294966720
525688955,6469691,6476192,16402,4294966823,4294964053,969,4294966278,377,13502,7709,5938,1800,4294967230,884,16287,4294964535,1865,1244,4294967195,952,4294966717,4294966717,4294966717
525694947,6470453,6477198,16147,4294966838,4294963948,1198,4294966432,264,13546,7927,5963,2045,4294967173,860,16233,4294964563,1898,1187,4294967121,939,4294966721,4294966721,4294966721
525700946,6470750,6477614,15916,4294966720,4294963968,1448,4294966476,176,13505,8233,5776,2478,4294967261,979,16280,4294964550,1987,1162,4294966957,865,4294966722,4294966722,4294966722
525706951,6469218,6476240,15748,4294966600,4294964049,1764,4294966427,115,13486,8349,5297,2708,249,1094,16437,4294964505,1883,1149,4294966843,809,4294966720,4294966720,4294966720
525712946,6469562,6476307,15795,4294966781,4294963995,1810,4294966292,77,13374,8249,5096,3143,509,1162,16379,4294964408,1825,1222,4294966717,709,4294966721,4294966721,4294966721
525718951,6470182,6476770,15981,4294966865,4294963892,1779,4294966093,38,13407,8103,4691,3508,827,1193,16431,4294964379,1976,1263,4294966581,624,4294966719,4294966719,4294966719
525724955,6469513,6475813,16011,4294966885,4294963669,1829,4294965989,36,13407,8071,4697,3914,1080,1116,16416,4294964402,2128,1266,4294966392,540,4294966717,4294966717,4294966717
525730946,6469180,6475537,16232,4294966957,4294963349,1885,4294965981,21,13498,7947,4664,4245,1335,1024,16444,4294964349,2045,1351,4294966236,477,4294966721,4294966721,4294966721
525736970,6469483,6475777,16281,4294966968,4294963291,1882,4294966097,4294967264,13427,8005,4776,4485,1573,890,16394,4294964300,1867,1531,4294966107,490,4294966707,4294966707,4294966707
525742954,6469949,6475852,16314,4294966863,4294963338,1980,4294966207,4294967242,13256,7783,4850,4804,1548,902,16280,4294964228,1766,1766,4294966054,514,4294966715,4294966715,4294966715
525748949,6468898,6474846,16241,4294966895,4294963573,1960,4294966187,17,13403,8137,5074,4794,1529,818,16196,4294964229,1623,1897,4294966028,538,4294966717,4294966717,4294966717
525754952,6469577,6476526,16408,4294966718,4294963758,2059,4294966259,87,13624,8332,5378,4422,1798,826,16153,4294964154,1517,2049,4294966102,604,4294966720,4294966720,4294966720
525760942,6470536,6477425,16340,4294966652,4294964054,2208,4294966248,124,13538,8288,5603,4641,1707,904,16054,4294964062,1532,2227,4294966182,677,4294966726,4294966726,4294966726
525766965,6470663,6477720,16451,4294966439,4294964080,2265,4294966328,255,13632,7873,5618,4664,1627,985,16100,4294963996,1616,2363,4294966326,784,4294966712,4294966712,4294966712
525772961,6473165,6479718,16364,4294966348,4294964111,2397,4294966546,389,13689,8191,5842,5206,1469,967,16051,4294963935,1498,2295,4294966511,934,4294966710,4294966710,4294966710
525778972,6476098,6484550,16299,4294966191,4294964160,2458,4294966787,489,13715,8075,5692,5093,1387,1182,16029,4294963781,1404,2203,4294966561,1035,4294966705,4294966705,4294966705
525784961,6473640,6483090,16225,4294965990,4294964300,2547,4294967079,571,13794,8307,5606,5415,1169,1218,16180,4294963680,1417,2175,4294966618,1167,4294966713,4294966713,4294966713
525790948,6469614,6474920,16160,4294965931,4294964550,2655,74,649,14018,8541,5364,4884,1064,1407,16220,4294963522,1339,2181,4294966620,1274,4294966718,4294966718,4294966718
525796948,6467227,6471217,16105,4294965894,4294964748,2720,245,764,14034,7950,5333,4911,1017,1546,16285,4294963379,1402,2325,4294966567,1341,4294966723,4294966723,4294966723
525802955,6465914,6472219,16092,4294965882,4294964857,2719,277,843,14103,7954,5530,5368,1039,1518,16340,4294963277,1328,2374,4294966513,1401,4294966718,4294966718,4294966718
525808955,6465415,6472117,16194,4294965932,4294965068,2726,214,946,14250,7716,5659,5104,1159,1551,16330,4294963316,1283,2598,4294966473,1465,4294966720,4294966720,4294966720
525814934,6467080,6473415,16271,4294965927,4294965106,2689,32,1068,14218,7451,5501,5321,1260,1502,16321,4294963281,1331,2593,4294966356,1459,4294966731,4294966731,4294966731
525820940,6468620,6475425,16335,4294965846,4294965059,2813,4294967081,1135,14040,7329,5523,5600,1209,1476,16113,4294963341,1453,2674,4294966298,1453,4294966727,4294966727,4294966727
525826949,6468341,6475772,16310,4294965801,4294964960,3028,4294966941,1207,13905,6770,5505,5401,1427,1394,15855,4294963131,1449,2756,4294966372,1466,4294966722,4294966722,4294966722
525832944,6468967,6476540,16246,4294965706,4294964925,3147,4294966779,1259,13874,6665,5521,5524,1758,1238,15730,4294963103,1351,2795,4294966510,1430,4294966721,4294966721,4294966721
525838962,6469521,6477134,16192,4294965583,4294964888,3227,4294966739,1247,13857,6364,5325,5007,1916,1204,15728,4294962905,1237,2649,4294966608,1397,4294966710,4294966710,4294966710
525844941,6469482,6476887,16092,4294965493,4294965072,3291,4294966729,1193,13837,6138,5547,4991,1877,1107,15475,4294962780,1095,2464,4294966681,1362,4294966724,4294966724,4294966724
525850952,6469407,6476939,15831,4294965261,4294965222,3278,4294966772,1135,13902,5672,5530,5410,1838,900,15391,4294962582,846,2089,4294966782,1321,4294966719,4294966719,4294966719
525856944,6470192,6477669,15689,4294965219,4294965464,3281,4294966812,1004,13977,6267,5683,5281,1922,918,15283,4294962359,695,2003,4294966810,1345,4294966723,4294966723,4294966723
525862956,6470041,6477542,15400,4294965184,4294965631,3259,4294966754,918,13978,5815,5698,4855,1793,852,15288,4294962232,466,1919,4294966829,1271,4294966716,4294966716,4294966716
525868954,6469476,6477040,15241,4294965312,4294965750,3194,4294966626,841,14065,5915,5849,5086,1747,769,15352,4294962246,423,1860,4294966917,1210,4294966717,4294966717,4294966717
525874985,6470274,6478101,15216,4294965437,4294965758,3110,4294966474,839,14038,5572,5749,4666,1637,808,15096,4294961782,587,2084,4294966918,1039,4294966695,4294966695,4294966695
525880961,6470184,6477553,15225,4294965591,4294965943,3072,4294966355,876,14132,5822,5716,4690,1438,891,15231,4294962109,462,2052,4294966845,966,4294966715,4294966715,4294966715
525886958,6469599,6476843,15259,4294965783,4294966051,2948,4294966287,936,14088,5606,5569,4265,1206,1004,15063,4294961813,131,1396,4294967042,1132,4294966713,4294966713,4294966713
525892950,6469599,6476866,15350,4294965913,4294966159,2742,4294966230,971,14086,5331,5550,4714,1052,1014,15031,4294961950,4294967277,1189,4294967170,1176,4294966718,4294966718,4294966718
525898948,6470152,6477226,15471,4294965945,4294966265,2492,4294966244,1060,13990,5657,5606,4104,958,989,15091,4294961858,4294967218,784,196,1287,4294966720,4294966720,4294966720
525904960,6469863,6477100,15630,4294965918,4294966363,2293,4294966448,1060,14155,5476,5723,3132,844,1068,15042,4294961452,13,551,393,1362,4294966711,4294966711,4294966711
525910948,6469717,6476987,15634,4294966004,4294966404,2049,4294966720,997,14174,5194,5493,2936,674,1016,15184,4294961403,107,332,332,1433,4294966721,4294966721,4294966721
525917006,6470992,6478364,15704,4294966086,4294966551,1932,4294967099,886,14221,4970,5634,3118,430,973,15233,4294961226,276,452,158,1495,4294966687,4294966687,4294966687
525922950,6470897,6478218,15823,4294966381,4294966714,1668,175,786,14410,4987,5543,3350,5,855,15648,4294961136,77,385,4294967207,1652,4294966717,4294966717,4294966717
525928963,6470226,6477425,15953,4294966498,4294966946,1429,519,705,14366,5422,5463,3733,4294967136,701,16383,4294961094,24,465,158,1859,4294966709,4294966709,4294966709
525934949,6471614,6478768,16110,4294966755,4294967239,1216,718,617,14498,5601,5658,3550,4294967140,640,16512,4294960875,4294967283,346,4294967208,1750,4294966721,4294966721,4294966721
525940949,6472132,6479468,16395,4294966947,296,855,761,536,14593,5713,5859,3297,4294967154,470,16900,4294960966,109,309,4294967218,1768,4294966718,4294966718,4294966718
525946953,6471510,6478712,16742,4294967124,424,461,727,464,14780,5949,5930,3081,4294967242,376,17103,4294961043,223,324,4294967174,1622,4294966716,4294966716,4294966716
525952945,6472559,6479751,17026,109,622,199,587,369,14833,6124,6038,2716,142,234,17413,4294961079,306,95,4294967240,1534,4294966725,4294966725,4294966725
525958953,6473026,6480215,17347,278,624,4294967137,404,292,15018,6341,6242,2316,324,104,17499,4294961027,380,37,91,1400,4294966721,4294966721,4294966721
525964946,6473269,6480555,17677,484,593,4294966922,177,113,15147,6607,6323,1897,426,4294967231,17608,4294961014,557,4294967123,278,1218,4294966719,4294966719,4294966719
525970956,6473325,6480379,18057,623,374,4294966694,18,4294967228,15314,6823,6611,1582,543,4294967187,17721,4294961172,574,4294966965,519,1066,4294966717,4294966717,4294966717
525976953,6474162,6481130,18181,871,14,4294966680,4294967291,4294966964,15375,7139,6694,1206,528,4294967137,17772,4294961331,801,4294966783,822,933,4294966716,4294966716,4294966716
525982942,6474149,6481209,18420,911,4294966938,4294966502,62,4294966681,15426,7306,6846,749,540,4294967102,17726,4294961536,894,4294966697,1123,836,4294966726,4294966726,4294966726
525988952,6473221,6480140,18461,1078,4294966654,4294966304,310,4294966368,15388,7322,7012,344,523,4294967052,17662,4294961620,957,4294966634,1386,704,4294966716,4294966716,4294966716
525994936,6473687,6480598,18356,1096,4294966634,4294965812,469,4294966089,15273,7309,7088,4294967130,445,4294966974,17658,4294961704,903,4294966553,1614,532,4294966728,4294966728,4294966728
526000964,6473979,6481129,18244,919,4294966453,4294965187,619,4294965822,15144,7090,7096,4294966579,438,4294966907,17544,4294961670,825,4294966403,1820,361,4294966711,4294966711,4294966711
526006943,6472770,6479384,18054,822,4294966364,4294964522,796,4294965559,14853,6891,7085,4294965982,413,4294966734,17458,4294961760,804,4294966283,1999,144,4294966722,4294966722,4294966722
526012950,6472552,6479046,17868,527,4294966325,4294963909,944,4294965375,14635,6651,6954,4294965347,412,4294966584,17405,4294961813,707,4294966034,2253,4294967216,4294966720,4294966720,4294966720
526020951,6472191,6478691,17247,163,4294966368,4294963241,1186,4294965242,14517,6192,6634,4294964764,436,4294966329,17159,4294961766,762,4294965639,2553,4294966937,4294966717,4294966717,4294966717
526028950,6470836,6477025,16576,4294967046,4294966513,4294962785,1224,4294965251,14200,6065,6517,4294964183,528,4294966001,16908,4294961650,735,4294965418,2750,4294966585,4294966720,4294966720,4294966720
526036966,6471877,6478215,16115,4294966765,4294966558,4294962503,1263,4294965317,14124,5778,6356,4294963921,657,4294965709,16535,4294961578,920,4294965390,2790,4294966295,4294966708,4294966708,4294966708
526044974,6470086,6476332,15593,4294966391,4294966598,4294962238,1166,4294965483,13862,5789,6391,4294963644,696,4294965308,16351,4294961529,942,4294965385,2807,4294966016,4294966706,4294966706,4294966706
526052977,6470209,6476085,15134,4294966050,4294966638,4294962119,1038,4294965713,13799,5678,6349,4294963401,674,4294965089,16072,4294961573,1052,4294965376,2859,4294965809,4294966702,4294966702,4294966702
526060953,6470448,6476537,14788,4294965738,4294966722,4294962063,904,4294965928,13642,5535,6065,4294963302,569,4294964948,15746,4294961526,1096,4294965395,2812,4294965622,4294966715,4294966715,4294966715
526068949,6469414,6475131,14712,4294965563,4294966772,4294962218,773,4294966148,13585,5412,5929,4294963373,555,4294964761,15442,4294961394,1299,4294965325,2737,4294965451,4294966720,4294966720,4294966720
526076962,6470490,6476536,14146,4294965433,4294966892,4294962398,530,4294966389,13552,5186,6016,4294963466,506,4294964630,15131,4294961429,895,4294965345,2622,4294965230,4294966709,4294966709,4294966709
526084962,6469515,6475110,14213,4294965275,4294967055,4294962504,237,4294966596,13319,4994,6144,4294963741,342,4294964468,14839,4294961451,682,4294965328,2598,4294965150,4294966710,4294966710,4294966710
526092960,6470101,6476063,14220,4294965298,4294967088,4294962768,76,4294966738,13226,4866,6066,4294963852,235,4294964388,14735,4294961456,623,4294965125,2637,4294965010,4294966712,4294966712,4294966712
526100974,6470487,6476764,14192,4294965388,4294967146,4294963113,4294967159,4294966940,13278,4835,5889,4294963840,83,4294964255,14525,4294961374,751,4294964914,2604,4294965103,4294966706,4294966706,4294966706
526108958,6470636,6476718,14223,4294965549,4294967050,4294963426,4294967032,4294967061,13342,4814,5837,4294963676,4294967241,4294964186,14469,4294961289,846,4294964672,2579,4294965080,4294966713,4294966713,4294966713
526116955,6471469,6477368,14339,4294965723,4294967108,4294963483,4294967038,4294967176,13461,4783,5756,4294963509,4294967120,4294964076,14359,4294961287,687,4294964330,2556,4294965118,4294966718,4294966718,4294966718
526124954,6470558,6476558,14701,4294965867,4294967185,4294963187,4294967200,4294967191,13516,4882,5711,4294963386,4294966816,4294964000,14238,4294961188,468,4294963957,2537,4294965251,4294966715,4294966715,4294966715
526132946,6471379,6477653,14734,4294965843,4294967254,4294962979,57,4294967106,13602,4879,5745,4294963172,4294966453,4294963961,14372,4294961112,492,4294963689,2630,4294965250,4294966725,4294966725,4294966725
526140960,6471173,6477409,14988,4294965731,20,4294962650,303,4294966836,13768,4921,5930,4294962853,4294966168,4294963934,14408,4294960993,465,4294963629,2738,4294965221,4294966714,4294966714,4294966714
526148936,6470367,6476827,14978,4294966034,155,4294962459,325,4294966428,13887,4924,5942,4294962522,4294965916,4294963891,14558,4294960918,681,4294963419,2812,4294965207,4294966730,4294966730,4294966730
526156940,6470938,6477178,15375,4294966151,239,4294961886,227,4294965997,13967,5004,6121,4294962268,4294965652,4294963875,14696,4294960840,686,4294963036,2906,4294965266,4294966725,4294966725,4294966725
526164973,6471165,6477721,15566,4294966409,387,4294961334,138,4294965568,14066,5060,5931,4294962087,4294965405,4294963838,14903,4294960776,775,4294962621,2951,4294965264,4294966705,4294966705,4294966705
526172951,6470303,6476410,15633,4294966756,334,4294960935,4294967091,4294965184,14279,5117,5703,4294961867,4294965363,4294963833,15078,4294960642,954,4294962410,2955,4294965265,4294966722,4294966722,4294966722
526180964,6470826,6477024,15803,4294967065,70,4294960681,4294966688,4294964843,14445,5246,5488,4294961640,4294965446,4294963834,15436,4294960753,951,4294962212,3019,4294965216,4294966710,4294966710,4294966710
526188948,6469971,6476243,15868,4294967114,4294967021,4294960621,4294966501,4294964584,14659,5341,5371,4294961518,4294965557,4294963767,15827,4294960740,1025,4294961857,3139,4294965205,4294966718,4294966718,4294966718
526196940,6470741,6477092,15811,4294967134,4294966572,4294960583,4294966431,4294964393,14779,5436,5240,4294961587,4294965717,4294963613,16043,4294960928,1234,4294961528,3360,4294965232,4294966727,4294966727,4294966727
526204950,6470531,6477008,15878,4294967058,4294966185,4294960517,4294966364,4294964293,14861,5559,5343,4294961729,4294965846,4294963440,16059,4294960967,1720,4294961444,3362,4294965337,4294966722,4294966722,4294966722
526212956,6469662,6476326,15980,4294966848,4294965824,4294960481,4294966318,4294964278,14811,5806,5523,4294961889,4294965861,4294963274,16086,4294961046,2249,4294961579,3248,4294965402,4294966716,4294966716,4294966716
526220952,6470836,6477798,16070,4294966521,4294965608,4294960341,4294966168,4294964319,14565,5980,5695,4294962133,4294965754,4294963189,15991,4294961230,2673,4294961815,3116,4294965433,4294966719,4294966719,4294966719
526228972,6468912,6475607,16061,4294966015,4294965304,4294960263,4294965882,4294964385,14498,6237,5658,4294962443,4294965646,4294963352,15935,4294961377,3011,4294962190,3176,4294965418,4294966705,4294966705,4294966705
526236940,6470609,6477869,16097,4294965469,4294965034,4294960533,4294965483,4294964404,14150,6461,5917,4294962680,4294965601,4294963540,15679,4294961653,3219,4294962452,3212,4294965356,4294966725,4294966725,4294966725
526244958,6469392,6476523,15953,4294964872,4294964470,4294961032,4294964999,4294964437,14473,6748,5991,4294962888,4294965524,4294963708,15670,4294961945,3314,4294962576,3215,4294965413,4294966715,4294966715,4294966715
526252958,6469597,6476438,15802,4294964735,4294963963,4294961929,4294964815,4294964437,14063,7128,6051,4294963085,4294965550,4294963942,15630,4294962227,3431,4294962672,3201,4294965354,4294966717,4294966717,4294966717
526260951,6470130,6477048,15974,4294964727,4294963608,4294962103,4294964185,4294964642,13572,7518,6028,4294963018,4294965423,4294964091,15466,4294962487,3567,4294962771,3066,4294965393,4294966720,4294966720,4294966720
526268953,6469059,6475562,15867,4294965189,4294963383,4294962539,4294964229,4294964982,13710,7612,5722,4294963213,4294965571,4294964275,15231,4294962770,3728,4294963054,2773,4294965365,4294966719,4294966719,4294966719
526276942,6470113,6476765,15945,4294965766,4294963257,4294963182,4294964588,4294965430,13243,7832,5491,4294963693,4294965727,4294964520,15221,4294963156,3693,4294963270,2559,4294965424,4294966726,4294966726,4294966726
526284959,6468328,6475080,15701,4294966361,4294963171,4294963505,4294964890,4294966001,12796,8099,5404,4294964234,4294965806,4294964795,15096,4294963553,3777,4294963427,2211,4294965552,4294966712,4294966712,4294966712
526292947,6468275,6474897,15567,4294966832,4294963116,4294963428,4294965047,4294966715,12701,8464,5075,4294964486,4294965886,4294964860,15330,4294964146,3697,4294963617,1916,4294965601,4294966723,4294966723,4294966723
526300951,6468586,6475899,16100,4294967096,4294963098,4294963707,4294965643,14,12810,8594,4758,4294964836,4294965943,4294965064,15237,4294964266,3817,4294963695,1308,4294966076,4294966716,4294966716,4294966716
526308951,6469561,6476681,15822,787,4294963202,4294963641,4294965703,469,12715,9113,5006,4294965451,4294965972,4294965078,15838,4294964681,4420,4294963588,649,4294966352,4294966718,4294966718,4294966718
526316957,6470222,6477210,16602,849,4294963012,4294963620,4294965811,853,13019,9374,5548,24,4294966407,4294965781,16329,4294965458,4782,4294962955,4294967146,4294966750,4294966717,4294966717,4294966717
526324936,6467347,6474004,17236,1266,4294962389,4294963983,4294965929,951,12542,10471,6374,150,4294966031,4294965430,17182,4294966005,4813,4294962141,4294966825,4294966957,4294966730,4294966730,4294966730
526332976,6467908,6475247,17520,1576,4294961797,4294964233,4294965761,923,12866,10866,6878,517,4294965500,4294965126,17159,4294965867,4421,4294961785,4294966604,197,4294966704,4294966704,4294966704
526340949,6469931,6477347,18340,1579,4294961180,4294964249,4294965537,734,12609,11523,7489,748,4294965071,4294964709,17480,4294965486,3916,4294962195,4294966950,187,4294966717,4294966717,4294966717
526348957,6470723,6477664,18941,1780,4294960971,4294964569,4294965407,270,13000,11620,7663,1127,4294965304,4294964720,18420,4294966053,4193,4294962059,270,4294966951,4294966713,4294966713,4294966713
526356938,6475298,6481279,19276,1968,4294961130,4294964727,4294965305,4294966964,12913,11700,7570,1195,4294965609,4294964554,18302,4294965792,4731,4294962946,514,4294966360,4294966728,4294966728,4294966728
526364955,6475779,6484403,19118,2136,4294961688,4294964960,4294965259,4294966224,13014,11674,7310,933,4294966209,4294964451,18273,4294965788,4835,4294964428,507,4294965822,4294966719,4294966719,4294966719
526372949,6468837,6473468,18797,2682,4294962423,4294964941,4294965353,4294965476,12863,11319,7047,703,4294966601,4294964502,18301,4294965511,4794,4294965352,918,4294965288,4294966720,4294966720,4294966720
526380943,6467053,6471576,18144,2764,4294963366,4294964482,4294965558,4294964988,13029,10932,7081,205,4294966654,4294964456,17825,4294965306,4644,4294965994,1729,4294964747,4294966726,4294966726,4294966726
526388945,6466567,6472536,17532,3016,4294964297,4294964474,4294965803,4294964692,13261,10538,7129,4294967225,4294966650,4294964575,17372,4294965114,4276,4294966429,2225,4294964376,4294966724,4294966724,4294966724
526396949,6469947,6474558,16868,2707,4294965107,4294963818,4294965967,4294964691,13139,10522,6946,68,4294966372,4294964786,16756,4294965111,3967,4294966508,2510,4294964334,4294966721,4294966721,4294966721
526404940,6470523,6475755,16506,2603,4294965696,4294963926,4294966077,4294964798,13005,10722,6761,4294967062,4294965962,4294965100,16590,4294965296,3550,4294966735,2581,4294964486,4294966728,4294966728,4294966728
526412946,6470633,6475757,16196,1704,4294966099,4294963436,4294966141,4294964972,13016,10798,6810,4294966926,4294965697,4294965557,16060,4294965494,3724,4294966920,2424,4294964754,4294966721,4294966721,4294966721
526420962,6471502,6477137,16048,1059,4294966201,4294963878,4294966098,4294965134,12901,10630,7049,4294966781,4294965312,4294965990,15833,4294965616,3995,4294967185,1885,4294965202,4294966716,4294966716,4294966716
526428969,6469972,6475066,16029,559,4294966348,4294964540,4294966125,4294965220,12921,10394,7342,4294966814,4294965029,4294966327,15756,4294965788,3883,4294967232,1397,4294965625,4294966706,4294966706,4294966706
526436943,6471303,6477267,15887,541,4294966061,4294964777,4294965697,4294965376,12856,10212,7207,4294966983,4294965295,4294966770,15775,4294965703,3862,403,958,4294966114,4294966725,4294966725,4294966725
526444957,6470441,6476367,16173,482,4294965586,4294965030,4294965536,4294965730,12444,10250,7221,4294966266,4294965641,4294966814,15932,4294965638,3922,821,644,4294966534,4294966715,4294966715,4294966715
526452948,6470443,6476395,16486,403,4294964861,4294965728,4294965401,4294966365,12328,10079,7145,4294966120,4294966128,4294967005,16015,4294965653,3790,775,436,4294966901,4294966720,4294966720,4294966720
526460953,6470822,6477278,16668,666,4294964020,4294966636,4294965286,4294967046,12198,9985,6770,4294966217,4294966669,4294967148,15958,4294965712,3694,705,223,4294967228,4294966719,4294966719,4294966719
526468965,6469794,6476076,16562,1209,4294963386,141,4294965501,424,11898,9872,6490,4294966403,4294967015,4294967204,15824,4294965665,3680,770,63,242,4294966712,4294966712,4294966712
526474963,6471264,6477866,16550,1373,4294963047,621,4294965856,868,11743,9787,6320,4294966476,4294967261,4294967237,15722,4294965681,3895,794,4294967197,480,4294966709,4294966709,4294966709
526480946,6470888,6477409,16172,1536,4294962957,816,4294966207,1180,11426,9635,6414,4294966408,149,4294967253,15547,4294965603,3913,847,4294966963,645,4294966718,4294966718,4294966718
526486983,6470530,6477019,15981,1474,4294962990,881,4294966585,1327,11366,9655,6420,4294966218,312,4,15557,4294965501,4113,842,4294966677,751,4294966696,4294966696,4294966696
526492945,6470896,6477216,15909,1515,4294963075,1076,4294967195,1218,11151,9635,6561,4294965956,346,50,15538,4294965386,4279,917,4294966383,839,4294966724,4294966724,4294966724
526498950,6471458,6478093,15651,1638,4294963236,1035,330,969,11042,9677,6499,4294965968,236,82,15441,4294965376,4129,926,4294966245,889,4294966721,4294966721,4294966721
526504963,6470803,6477596,15432,1706,4294963370,1010,570,692,10957,9662,6546,4294965940,85,82,15412,4294965372,4176,1224,4294966089,947,4294966713,4294966713,4294966713
526510944,6470232,6477022,15237,1919,4294963519,994,741,470,11042,9937,6331,4294965755,37,66,15500,4294965402,4126,1405,4294966140,889,4294966725,4294966725,4294966725
526516959,6471187,6478167,15127,2037,4294963611,892,779,308,11049,9812,6513,4294965725,4294967243,127,15480,4294965411,4125,1766,4294966168,891,4294966715,4294966715,4294966715
526522938,6471157,6478181,15025,2260,4294963713,890,699,225,11097,9918,6507,4294965877,4294967166,68,15640,4294965513,4120,1812,4294966271,780,4294966728,4294966728,4294966728
526528937,6470674,6477394,15137,2433,4294963818,887,525,201,11344,10267,6426,4294965836,4294967245,181,15677,4294965501,4074,1937,4294966477,819,4294966728,4294966728,4294966728
526534943,6471982,6478910,15222,2545,4294963924,960,356,275,11414,10117,6335,4294965868,18,236,15688,4294965322,4076,2116,4294966619,729,4294966721,4294966721,4294966721
526540961,6471839,6478943,15452,2822,4294963877,1039,193,362,11533,10079,6338,4294965952,101,315,15817,4294965411,4108,1946,4294966825,680,4294966713,4294966713,4294966713
526546948,6471310,6478083,15673,2944,4294963812,893,110,578,11775,9978,6255,4294965808,148,386,15577,4294965287,4370,2110,4294966900,494,4294966720,4294966720,4294966720
526552963,6472039,6478908,15908,2990,4294963835,743,145,790,11912,9961,6277,4294965970,244,452,15725,4294965491,4101,1805,4294967132,481,4294966713,4294966713,4294966713
526558949,6472405,6479422,16075,2902,4294963911,595,117,953,11984,9988,6280,4294966039,410,489,15800,4294965597,4013,1585,99,569,4294966722,4294966722,4294966722
526564965,6472181,6479231,16256,2755,4294963892,486,140,1025,12088,9942,6381,4294965902,602,634,15599,4294965600,4028,1822,250,587,4294966710,4294966710,4294966710
526570958,6471407,6478296,16429,2642,4294963946,487,214,1020,12157,9799,6481,4294965729,713,750,15562,4294965641,3908,2010,392,696,4294966713,4294966713,4294966713
526576953,6472151,6479541,16395,2334,4294963883,540,472,979,12233,9802,6582,4294965886,817,789,15676,4294965587,3903,2082,453,815,4294966718,4294966718,4294966718
526582950,6471789,6479076,16347,2064,4294963991,684,631,811,12316,9780,6659,4294965946,864,819,15701,4294965972,3903,2053,587,963,4294966719,4294966719,4294966719
526588951,6470724,6477793,16389,1808,4294964096,706,786,632,12356,10035,6841,4294965764,875,1020,15693,4294966054,3796,1946,614,1326,4294966721,4294966721,4294966721
526594965,6471242,6478636,16373,1686,4294964158,745,923,443,12351,9946,6875,4294965774,729,1148,15577,4294965951,4007,2129,510,1585,4294966708,4294966708,4294966708
526600959,6470761,6478282,16427,1625,4294964180,737,1021,335,12278,9964,7049,4294965650,651,1326,15605,4294965980,4119,2178,379,1798,4294966712,4294966712,4294966712
526606964,6469679,6476931,16507,1558,4294964132,715,1101,279,12291,9944,6961,4294965552,565,1623,15525,4294966053,4191,2165,276,2005,4294966710,4294966710,4294966710
526612964,6469535,6476972,16570,1531,4294964168,747,1161,327,12115,9843,6987,4294965767,509,1731,15504,4294966192,4126,2261,202,2217,4294966711,4294966711,4294966711
526618955,6469607,6476939,16566,1554,4294964211,904,1278,458,11994,9826,7137,4294965774,541,1942,15413,4294966297,4226,2237,187,2425,4294966715,4294966715,4294966715
526624948,6468303,6475477,16700,1781,4294964202,1067,1344,592,11899,10182,7005,4294965290,584,2076,15249,4294966306,4376,2230,75,2551,4294966721,4294966721,4294966721
526630939,6468258,6475393,16686,1967,4294964141,1255,1454,802,11840,10055,7030,4294965384,634,2383,15162,4294966324,4490,2192,4294967267,2710,4294966726,4294966726,4294966726
526636939,6468647,6475949,16731,2114,4294964067,1535,1566,1062,11777,9963,6819,4294965289,660,2585,15202,4294966206,4584,2330,4294967107,2862,4294966727,4294966727,4294966727
526642944,6468785,6476352,16626,2090,4294963934,1794,1742,1294,11830,9925,6739,4294965140,726,2824,15285,4294966182,4633,2388,4294966999,2964,4294966724,4294966724,4294966724
526648935,6467897,6475209,16420,2043,4294964047,2050,1967,1521,11733,10142,6691,4294965156,592,2998,15271,4294966186,4570,2580,4294966725,2963,4294966728,4294966728,4294966728
526654963,6468295,6475507,16287,2004,4294963979,2142,2129,1693,11743,9768,6744,4294964764,595,3095,15509,4294966153,4141,2593,4294966723,3003,4294966711,4294966711,4294966711
526660955,6468703,6476110,16074,1822,4294964091,2162,2285,1845,11702,9446,6771,4294964877,628,3188,15388,4294966203,4102,2803,4294966718,3028,4294966720,4294966720,4294966720
526666937,6468000,6475181,15909,1596,4294964057,2177,2367,1905,11621,9467,6787,4294965524,569,3308,15399,4294966207,4064,3065,4294966680,3008,4294966729,4294966729,4294966729
526672961,6468803,6475961,15709,1381,4294964000,2281,2438,1908,11656,9613,6336,4294965318,577,3274,15282,4294966171,3921,3086,4294966726,2983,4294966710,4294966710,4294966710
526678968,6469986,6476904,15473,1249,4294963786,2523,2495,1855,11670,9742,6272,4294965354,564,3335,15417,4294966125,3697,3109,4294966665,3139,4294966710,4294966710,4294966710
526684952,6469171,6475939,15299,1247,4294963801,2885,2444,1753,11703,9611,6153,4294965374,606,3404,15680,4294966171,3275,3258,4294966777,3167,4294966718,4294966718,4294966718
526690950,6468855,6475614,15168,1346,4294963663,3057,2333,1657,11854,9713,6101,4294965648,659,3453,15914,4294966104,2854,3276,4294966879,3347,4294966721,4294966721,4294966721
526696942,6469631,6476649,15132,1459,4294963257,3268,2212,1567,12141,9796,6111,4294965919,731,3559,16036,4294965986,2686,3279,4294966903,3465,4294966725,4294966725,4294966725
526702947,6468715,6475600,15201,1468,4294962722,3555,2177,1518,12332,9796,6238,4294966258,714,3602,16302,4294966017,2692,3018,4294966834,3619,4294966721,4294966721,4294966721
526708955,6468067,6475027,15294,1607,4294962315,4059,2299,1460,12647,9873,6279,4294966782,718,3607,16723,4294965804,2621,2735,4294966622,3819,4294966717,4294966717,4294966717
526714951,6469011,6475718,15523,1710,4294962042,4305,2442,1488,12906,9622,6582,4294967075,509,3545,17306,4294965492,2523,2258,4294966451,4021,4294966719,4294966719,4294966719
526720948,6469837,6476715,16036,1691,4294962052,4195,2618,1611,13587,9283,6973,389,441,3272,17661,4294965015,2669,1718,4294966169,4263,4294966720,4294966720,4294966720
526726959,6468833,6475767,16570,1479,4294962220,3972,2617,1833,14292,9009,7521,1277,179,3067,18135,4294964378,2812,1069,4294965869,4423,4294966715,4294966715,4294966715
526732964,6468919,6475479,17259,1076,4294962460,3286,2208,2090,14503,8416,8338,2212,4294966954,2732,18441,4294963683,2983,541,4294965470,4463,4294966712,4294966712,4294966712
526738956,6469602,6476297,18068,420,4294962851,2598,1936,2383,14694,7827,9170,3055,4294966009,2225,18776,4294962974,3096,104,4294965173,4280,4294966717,4294966717,4294966717
526744954,6469196,6475917,18764,4294967238,4294963354,2209,1650,2576,15478,7236,9485,3961,4294965434,2007,18899,4294962354,3143,4294967143,4294965139,3954,4294966718,4294966718,4294966718
526750951,6469129,6475725,19189,4294966765,4294964062,1593,900,2678,14910,6695,9912,4453,4294964801,1553,18757,4294961868,2969,14,4294965349,3425,4294966719,4294966719,4294966719
526756961,6469815,6476858,19499,4294966168,4294964991,644,4294967108,2747,15546,6156,9192,4337,4294964668,1505,18432,4294961363,2708,394,4294965813,2833,4294966714,4294966714,4294966714
526762976,6468886,6476396,19646,4294965467,4294965898,4294966993,4294965968,2669,15300,5878,8865,3916,4294964730,1263,17968,4294961040,2558,907,4294966325,2172,4294966703,4294966703,4294966703
526770948,6467739,6475580,19252,4294964856,4294966966,4294966294,4294964709,2375,14849,5665,7919,1760,4294965247,1154,17441,4294960497,2489,1478,4294966846,1343,4294966720,4294966720,4294966720
526778948,6468137,6476447,18164,4294964866,337,4294966672,4294964207,2163,14783,5592,6847,4294966756,4294965751,1386,16966,4294960200,2384,1997,4294967097,472,4294966723,4294966723,4294966723
526784964,6467657,6476291,16883,4294965209,552,215,4294964073,2147,14532,5321,6049,4294965701,4294965955,1358,16560,4294960220,2311,2336,4294967148,81,4294966712,4294966712,4294966712
526790945,6467028,6475369,15714,4294965577,534,1247,4294964209,2258,14836,5173,5350,4294965028,4294966342,1375,16355,4294960410,1987,2365,4294967181,4294966984,4294966724,4294966724,4294966724
526798964,6467777,6476401,14609,4294965963,73,2423,4294964935,2521,14898,4726,4718,4294965133,4294966664,1128,16204,4294960790,1271,2311,4294967220,4294966849,4294966708,4294966708,4294966708
526806943,6467098,6475548,13892,4294966444,4294966907,3160,4294965793,2898,14846,4515,4345,4294965748,4294966877,884,15955,4294961133,715,1933,4294967239,4294967008,4294966721,4294966721,4294966721
526814948,6468570,6477214,13281,4294966981,4294966499,3068,4294966417,3222,14849,4603,4247,4294966194,4294967001,359,15668,4294961338,524,1557,4294967186,4294967293,4294966719,4294966719,4294966719
526822940,6468900,6477139,13456,4294967148,4294966352,2321,4294966885,3363,14792,4809,4282,4294966769,4294967213,81,15400,4294961545,518,1148,4294967069,324,4294966727,4294966727,4294966727
526828952,6468964,6476916,13863,4294967207,4294966393,1557,6,3336,14434,4751,4428,4294967092,4294967239,119,15312,4294961483,634,760,4294966967,593,4294966719,4294966719,4294966719
526834948,6469828,6477430,14273,4294966941,4294966503,618,433,3232,14370,4902,4446,270,4294967152,4294967201,15118,4294961547,715,440,4294966820,806,4294966718,4294966718,4294966718
526840961,6470234,6477407,14778,4294966707,4294966503,4294967140,589,2925,14201,4905,4533,908,4294967052,4294967290,15124,4294961434,743,4294967196,4294966679,919,4294966715,4294966715,4294966715
526848940,6469251,6476223,15609,4294966352,4294966641,4294966248,708,2441,13880,4550,4785,1202,4294967206,4294967283,15062,4294961277,845,4294966521,4294966638,953,4294966727,4294966727,4294966727
526856949,6470466,6476996,16363,4294966061,4294966650,4294965927,557,1895,13941,4022,4944,469,4294967164,4294966988,15105,4294961061,925,4294965892,4294966702,967,4294966720,4294966720,4294966720
526864969,6470216,6477019,17085,4294965881,4294966782,4294965947,130,1357,14028,3852,5312,1585,4294966983,4294967105,15212,4294960792,1017,4294965116,4294966727,869,4294966711,4294966711,4294966711
526872947,6469645,6476344,17518,4294965779,4294966644,4294966196,4294967103,899,14310,4580,5511,1245,4294966655,4294967215,15329,4294960604,1115,4294964337,4294966690,812,4294966724,4294966724,4294966724
526880951,6470016,6476409,17813,4294965668,4294966391,4294966525,4294966896,473,14513,5076,5971,279,4294966267,13,15673,4294960417,1260,4294963753,4294966575,787,4294966722,4294966722,4294966722
526888954,6469552,6475853,17874,4294965601,4294966077,4294966845,4294966995,171,14575,5276,6287,4294966855,4294965953,118,15949,4294960408,1324,4294963379,4294966411,654,4294966720,4294966720,4294966720
526896976,6470299,6476927,17635,4294965442,4294965852,4294967216,4294967220,125,14800,5411,6481,4294966714,4294965613,293,16170,4294960463,1431,4294963358,4294966273,510,4294966700,4294966700,4294966700
526904964,6470374,6476979,17104,4294965404,4294965821,69,18,181,15066,5604,6482,4294967022,4294965485,447,16315,4294960587,1375,4294963699,4294966136,338,4294966710,4294966710,4294966710
526910941,6470924,6477320,16964,4294965379,4294965794,63,74,292,15263,5770,6352,4294967294,4294965388,370,16257,4294960699,1382,4294964069,4294966161,214,4294966727,4294966727,4294966727
526916940,6471250,6477805,16763,4294965323,4294966029,4294967250,219,527,15240,5636,6242,92,4294965277,278,16208,4294960761,1324,4294964521,4294966230,69,4294966727,4294966727,4294966727
526922964,6470601,6477935,16398,4294965470,4294966263,4294967128,238,726,15692,5603,5880,54,4294965425,199,16212,4294960784,1158,4294964891,4294966386,4294967244,4294966712,4294966712,4294966712
526930952,6472074,6477921,16069,4294965553,4294966679,4294966809,354,992,15841,5214,5773,4294967007,4294965593,4294967233,16091,4294960898,1032,4294965225,4294966684,4294967038,4294966717,4294966717,4294966717
526938965,6475157,6480188,15675,4294965644,4294967082,4294966585,684,1154,15733,4952,5744,4294966461,4294965871,4294966824,15963,4294961005,818,4294965324,4294967011,4294966856,4294966708,4294966708,4294966708
526946954,6475577,6483051,15206,4294965749,202,4294966174,870,1219,15526,4879,5600,4294966127,4294965929,4294966506,15924,4294961103,677,4294965295,276,4294966846,4294966718,4294966718,4294966718
526954960,6472388,6478564,15082,4294965730,362,4294965743,1015,1100,15413,4875,5225,4294965636,4294966249,4294966160,16066,4294961027,470,4294965188,933,4294966858,4294966714,4294966714,4294966714
526962947,6466726,6470425,15052,4294965642,426,4294965373,1084,908,15176,4877,5183,4294965366,4294966653,4294965871,16191,4294960972,402,4294965151,1613,4294966881,4294966721,4294966721,4294966721
526970951,6465859,6472191,14901,4294965745,424,4294964889,928,596,14788,4792,5176,4294965175,4294967036,4294965571,16232,4294960942,87,4294964757,2163,4294966590,4294966719,4294966719,4294966719
526978949,6468202,6474266,14938,4294965551,215,4294964191,525,321,14446,4698,5279,4294965259,4294967268,4294965294,16024,4294960923,180,4294964513,2737,4294966502,4294966723,4294966723,4294966723
526986953,6469098,6475455,15270,4294965352,4294967027,4294963988,140,6,14171,4575,5268,4294965265,4294967120,4294965133,15596,4294960805,354,4294964204,3060,4294966289,4294966717,4294966717,4294966717
526994946,6470489,6476680,14953,4294965551,4294966674,4294963715,4294966786,4294967001,14089,4417,5126,4294965434,4294967053,4294965012,15280,4294960733,586,4294963959,3357,4294966136,4294966725,4294966725,4294966725
527002954,6470278,6476659,15391,4294965356,4294966612,4294963710,4294966417,4294966762,13847,4379,4854,4294965450,4294966938,4294964881,14711,4294960527,652,4294963447,2996,4294965795,4294966717,4294966717,4294966717
527010950,6470012,6476342,15274,4294965459,4294966564,4294963746,4294966146,4294966442,13733,4255,4762,4294965510,4294966552,4294964792,14482,4294960675,526,4294963511,2766,4294965845,4294966722,4294966722,4294966722
527018966,6470385,6476980,15024,4294965492,4294966606,4294963872,4294965963,4294966115,13804,4298,4661,4294965575,4294966357,4294964880,14266,4294960609,452,4294963475,2308,4294965947,4294966708,4294966708,4294966708
527026954,6469916,6476872,14784,4294965808,4294966444,4294964037,4294965893,4294965912,13974,4432,4619,4294965672,4294966142,4294964926,14206,4294960382,557,4294963452,1827,4294966091,4294966719,4294966719,4294966719
527034961,6470097,6477269,14582,4294966250,4294966180,4294964014,4294965854,4294965867,13982,4462,4536,4294965548,4294965882,4294965049,14433,4294960206,577,4294963266,1346,4294966017,4294966716,4294966716,4294966716
527042971,6470513,6478241,14562,4294966603,4294966029,4294963815,4294965930,4294966045,14046,4451,4312,4294965441,4294965668,4294965062,14537,4294960068,492,4294963167,1034,4294965894,4294966705,4294966705,4294966705
527050965,6469328,6476612,14672,4294966612,4294965994,4294963528,4294966159,4294966307,14114,4386,4185,4294965480,4294965506,4294965078,14569,4294960123,380,4294963187,866,4294965768,4294966712,4294966712,4294966712
527058974,6470732,6477548,14662,4294966264,4294965935,4294962899,4294966511,4294966554,14111,4316,4228,4294965537,4294965448,4294965058,14632,4294960191,388,4294963236,902,4294965687,4294966704,4294966704,4294966704
527066951,6469315,6476799,14685,4294965792,4294965751,4294962230,4294966830,4294966464,14192,4316,4457,4294965488,4294965372,4294965041,14866,4294960332,459,4294963242,977,4294965630,4294966717,4294966717,4294966717
527074947,6469887,6477646,14488,4294965148,4294965814,4294961814,4294967073,4294966168,14252,4257,4474,4294965449,4294965368,4294964932,15170,4294960463,347,4294963331,1137,4294965537,4294966721,4294966721,4294966721
527082961,6470209,6478383,14572,4294964823,4294965876,4294961287,4294967199,4294965652,14310,4425,4454,4294965352,4294965371,4294964692,15506,4294960737,254,4294963375,1412,4294965533,4294966711,4294966711,4294966711
527090947,6469563,6477526,14706,4294964550,4294965846,4294960882,4294967137,4294965068,14396,4655,4407,4294965275,4294965583,4294964389,15836,4294960965,130,4294963815,1828,4294965673,4294966721,4294966721,4294966721
527098951,6471012,6479188,14823,4294964444,4294965935,4294960752,4294966888,4294964475,14423,4896,4372,4294965259,4294966004,4294963996,15925,4294961256,4294967159,4294963724,2412,4294965453,4294966721,4294966721,4294966721
527106953,6469851,6477531,15062,4294964619,4294966138,4294960731,4294966490,4294963952,14344,5137,4183,4294965320,4294966520,4294963678,16205,4294961332,4294966767,4294964161,3106,4294965474,4294966718,4294966718,4294966718
527114937,6471129,6478925,15238,4294964827,4294966307,4294961171,4294966101,4294963452,14415,5584,3886,4294965190,4294967077,4294963427,16486,4294961314,4294966842,4294964019,3711,4294965391,4294966729,4294966729,4294966729
527122953,6471272,6478934,15458,4294965356,4294966345,4294961541,4294965768,4294963067,14509,5777,3740,4294965166,273,4294963222,16869,4294961268,4294967227,4294963620,4047,4294965382,4294966716,4294966716,4294966716
527130946,6471049,6478412,15698,4294965904,4294966235,4294961886,4294965624,4294962944,14679,6002,3926,4294965145,554,4294962906,16913,4294961283,743,4294963117,4166,4294965238,4294966722,4294966722,4294966722
527138943,6472238,6479750,15744,4294966393,4294965912,4294962094,4294965589,4294963044,14769,6153,4218,4294965130,600,4294962465,17112,4294961341,1588,4294962730,4056,4294964967,4294966723,4294966723,4294966723
527146943,6471194,6478537,16247,4294966661,4294965429,4294962212,4294965638,4294963283,14858,6429,4586,4294965240,490,4294962098,17000,4294961484,2283,4294962550,3839,4294964679,4294966726,4294966726,4294966726
527154948,6472289,6479536,16729,4294966812,4294964867,4294962337,4294965600,4294963481,15011,6817,4944,4294965357,623,4294961862,16690,4294961661,2803,4294962586,3397,4294964474,4294966719,4294966719,4294966719
527162948,6471859,6479039,16882,4294966682,4294964378,4294962386,4294965336,4294963675,14803,7450,5564,4294965235,949,4294961862,16433,4294961988,3139,4294962809,2797,4294964231,4294966718,4294966718,4294966718
527170948,6471787,6478977,17501,4294966350,4294963800,4294962424,4294965323,4294963847,14559,8152,5859,4294965314,896,4294962181,16430,4294962496,3206,4294963150,2287,4294964077,4294966724,4294966724,4294966724
527178961,6471708,6479023,17827,4294966353,4294963312,4294962638,4294965235,4294964023,14194,8786,6265,4294965265,816,4294962580,16281,4294962961,3440,4294963527,1822,4294963975,4294966712,4294966712,4294966712
527186951,6470894,6478655,17997,4294966423,4294962713,4294962398,4294965148,4294964434,13931,9244,6282,4294965298,815,4294963054,16218,4294963401,3755,4294964092,1407,4294963905,4294966719,4294966719,4294966719
527194957,6470222,6477805,17896,4294966480,4294962242,4294962153,4294965301,4294965044,13376,9742,6112,4294965211,536,4294963451,15938,4294963856,3842,4294964610,1117,4294963901,4294966719,4294966719,4294966719
527202936,6469349,6477342,17474,4294966512,4294961827,4294962260,4294965574,4294965676,13247,9927,5996,4294966108,976,4294964310,15713,4294964644,3926,4294964888,899,4294963995,4294966729,4294966729,4294966729
527210934,6468606,6476444,16954,4294966409,4294961490,4294962431,4294965987,4294966322,12553,10263,5554,4294965823,489,4294964677,15487,4294964885,3856,4294965512,636,4294964138,4294966727,4294966727,4294966727
527218953,6468864,6476789,16242,4294966300,4294961418,4294963063,4294966418,4294966946,12451,10420,5367,4294965803,4294967245,4294965155,15612,4294965281,3822,4294965930,338,4294964412,4294966715,4294966715,4294966715
527226943,6468173,6476416,15748,4294966189,4294961507,4294963602,4294966724,179,12298,10919,5398,4294966214,4294966734,4294965345,15780,4294965450,3980,4294966143,4294967290,4294964714,4294966725,4294966725,4294966725
527234939,6468427,6476966,15602,4294966191,4294961758,4294963890,4294966898,608,12176,11038,5603,4294966882,4294966232,4294965692,16127,4294965671,3966,4294966122,4294966875,4294965065,4294966725,4294966725,4294966725
527242941,6469034,6478167,15724,4294966096,4294961780,4294964009,4294966735,936,12502,11237,5669,4294966768,4294965813,4294965397,16500,4294965721,3830,4294966124,4294966597,4294965405,4294966725,4294966725,4294966725
527250937,6467790,6476356,16209,4294965963,4294961785,4294964154,4294966324,1084,12900,11290,5589,837,4294965695,4294965517,16824,4294965927,4104,4294966019,4294966332,4294965611,4294966730,4294966730,4294966730
527258966,6469411,6477891,16810,4294965817,4294961665,4294964747,4294965940,1030,12736,11576,5898,956,4294965920,4294965347,17018,4294965948,4288,4294966230,4294966206,4294965763,4294966709,4294966709,4294966709
527266968,6468093,6477177,17334,4294966042,4294961553,4294965729,4294965366,687,12867,11583,5962,1336,4294966187,4294965312,16995,4294965969,4107,4294966572,4294966224,4294965790,4294966709,4294966709,4294966709
527274949,6468756,6477931,17928,4294966643,4294961728,4294966669,4294965025,228,12933,11640,6025,1759,4294966625,4294965324,16932,4294966031,3943,4294967001,4294966303,4294965872,4294966720,4294966720,4294966720
527282962,6469505,6478776,18481,160,4294961855,188,4294964892,4294967041,13084,11749,5996,2100,4294966968,4294965394,17195,4294966208,3491,4294967209,4294966469,4294965892,4294966713,4294966713,4294966713
527290947,6469508,6477751,18684,1078,4294962085,701,4294965081,4294966547,13257,11850,5892,2231,19,4294965567,17365,4294966314,3320,220,4294966679,4294965966,4294966724,4294966724,4294966724
527296960,6470897,6479142,18695,1677,4294962450,884,4294965441,4294966226,13431,11819,5867,2149,319,4294965750,17504,4294966294,3051,388,4294966836,4294966000,4294966712,4294966712,4294966712
527304940,6470099,6477900,18565,2493,4294962885,897,4294966091,4294965796,13421,11788,5595,1948,664,4294965947,17639,4294966299,2891,625,4294967033,4294966036,4294966725,4294966725,4294966725
527310964,6470442,6478374,18165,2975,4294963287,683,4294966599,4294965576,13526,11677,5474,1718,720,4294966124,17755,4294966301,2754,857,4294967177,4294966074,4294966711,4294966711,4294966711
527318971,6469938,6477775,18042,3478,4294963937,214,35,4294965488,13551,11517,5421,1557,791,4294966338,17772,4294966291,2765,1279,4294967290,4294966185,4294966707,4294966707,4294966707
527324951,6469430,6477972,17661,3744,4294964319,4294967236,427,4294965531,13531,11411,5480,1544,784,4294966463,17616,4294966364,2878,1485,118,4294966318,4294966721,4294966721,4294966721
527330949,6469410,6477877,17670,3783,4294964851,4294966912,775,4294965599,13578,11288,5472,1511,771,4294966607,17410,4294966425,2998,1608,178,4294966471,4294966718,4294966718,4294966718
527336946,6469914,6478328,17499,3607,4294965072,4294966837,946,4294965737,13456,11259,5597,1580,798,4294966700,17151,4294966424,2918,1691,236,4294966646,4294966721,4294966721,4294966721
527342969,6470478,6478397,17295,3283,4294965266,4294966804,899,4294965854,13413,11237,5657,1550,850,4294966799,17025,4294966489,2916,1742,313,4294966884,4294966706,4294966706,4294966706
527348964,6469707,6476679,17310,2980,4294965200,4294966798,760,4294965950,13321,11115,5752,1507,1045,4294966938,16806,4294966518,2982,1790,424,4294967137,4294966712,4294966712,4294966712
527354967,6470249,6477412,17174,2522,4294964919,4294966811,602,4294966022,13209,11163,5810,1521,1260,4294967198,16673,4294966569,2984,1833,592,103,4294966709,4294966709,4294966709
527360949,6470147,6477596,17112,2175,4294964424,4294966875,388,4294966008,13009,11113,5916,1657,1376,243,16399,4294966657,3043,1892,715,363,4294966720,4294966720,4294966720
527366942,6468741,6476396,16936,1945,4294963912,4294966930,286,4294966010,12514,11254,6093,1577,1424,504,16392,4294966572,3160,2028,884,613,4294966726,4294966726,4294966726
527372949,6468681,6476465,16815,1668,4294963485,4294966946,248,4294966056,12281,11338,6179,1293,1484,778,16352,4294966485,3176,2285,987,851,4294966722,4294966722,4294966722
527378959,6468788,6476953,16558,1508,4294963128,4294967048,233,4294966137,12319,11179,6062,1292,1603,1087,16294,4294966416,3202,2540,1050,1047,4294966713,4294966713,4294966713
527384959,6467740,6476040,16161,1348,4294962830,4294967095,212,4294966267,12386,11067,5931,1229,1821,1377,16226,4294966387,3389,2718,1121,1156,4294966718,4294966718,4294966718
527390964,6467753,6475406,15793,1284,4294962597,4294967261,252,4294966371,11799,11006,6128,1612,2018,1803,16037,4294966329,3514,2800,1121,1309,4294966710,4294966710,4294966710
527396950,6468273,6476288,15292,1232,4294962399,239,268,4294966538,11393,11159,5929,1289,1763,1796,15817,4294966148,3415,3045,1063,1439,4294966722,4294966722,4294966722
527402967,6467957,6475964,14927,1276,4294962400,411,259,4294966676,11369,11024,5985,1247,1803,2067,15653,4294966345,3607,3101,976,1574,4294966710,4294966710,4294966710
527408959,6467634,6475571,14658,1204,4294962490,830,364,4294966798,11288,10865,5975,1502,1635,2318,15531,4294966302,3527,3050,933,1722,4294966714,4294966714,4294966714
527414960,6468864,6476486,14526,1421,4294962669,933,362,4294966899,10999,10764,6081,1690,1507,2537,15404,4294966340,3420,2944,848,1896,4294966714,4294966714,4294966714
527420954,6469679,6477197,14376,1473,4294962778,943,376,4294966978,10950,10795,6121,1817,1264,2640,15301,4294966387,3399,2828,764,2026,4294966715,4294966715,4294966715
527426962,6468900,6475866,14304,1555,4294962951,758,327,4294967055,10778,10595,6021,1875,972,2718,15175,4294966493,3443,2723,685,2192,4294966714,4294966714,4294966714
527432964,6469215,6476408,14335,1433,4294962973,517,309,4294967105,10636,10687,5996,1921,662,2733,15068,4294966535,3472,2694,553,2327,4294966712,4294966712,4294966712
527438949,6469671,6477091,14405,1370,4294963012,439,241,4294967098,10833,10402,5864,1676,497,2640,15014,4294966539,3477,2726,378,2432,4294966723,4294966723,4294966723
527444955,6468857,6476351,14501,1377,4294962916,458,186,4294967110,10860,10277,5536,1712,431,2848,14961,4294966574,3408,2611,303,2531,4294966711,4294966711,4294966711
527450939,6468111,6475833,14707,1281,4294962708,557,162,4294967142,10921,10153,5432,1701,479,2912,15025,4294966667,3514,2631,190,2613,4294966727,4294966727,4294966727
527456952,6468317,6476676,14948,1275,4294962658,816,187,4294967225,10952,10290,5321,1761,491,2932,15056,4294966570,3615,2590,76,2779,4294966718,4294966718,4294966718
527462963,6467454,6476075,15174,1208,4294962522,1024,168,78,11060,10121,5162,1793,587,3017,15123,4294966603,3718,2480,4294967291,2778,4294966713,4294966713,4294966713
527468942,6466727,6475295,15361,1192,4294962606,1213,203,256,11115,10308,5166,1953,656,3018,15159,4294966511,3732,2490,4294967233,2874,4294966724,4294966724,4294966724
527474954,6466862,6476233,15578,1039,4294962570,1378,195,435,11195,10126,5210,2154,841,3125,15263,4294966525,3619,2589,4294967136,2915,4294966715,4294966715,4294966715
527480952,6466329,6475873,15826,887,4294962649,1482,247,645,11248,10300,5253,2428,962,3153,15252,4294966532,3524,2720,4294967061,2922,4294966718,4294966718,4294966718
527486953,6465813,6475320,16002,751,4294962821,1629,397,870,11383,10378,5230,2400,1186,3133,15280,4294966466,3486,2952,4294967011,2977,4294966715,4294966715,4294966715
527492957,6465828,6475339,16123,651,4294962906,1848,533,1055,11450,10386,5283,2360,1401,3203,15275,4294966429,3394,3146,4294966972,3024,4294966718,4294966718,4294966718
527498964,6466097,6475822,16287,491,4294963113,2141,743,1226,11548,10422,5272,2451,1619,3303,15319,4294966414,3420,3268,4294966907,3101,4294966712,4294966712,4294966712
527504982,6465334,6476284,16340,304,4294963216,2567,1062,1290,11684,10485,5242,2485,1867,3405,15290,4294966488,3386,3341,4294966865,3226,4294966699,4294966699,4294966699
527510963,6465053,6476411,16277,243,4294963273,3093,1389,1304,11769,10512,5337,2539,2070,3551,15261,4294966480,3325,3332,4294966791,3380,4294966713,4294966713,4294966713
527516949,6466862,6478015,16298,136,4294963532,3638,1732,1327,11937,10536,5257,2657,2241,3714,15361,4294966541,3350,3355,4294966756,3550,4294966718,4294966718,4294966718
527522951,6468441,6478695,16368,148,4294963599,4107,2068,1318,12042,10597,5246,2771,2530,3827,15387,4294966500,3278,3332,4294966669,3713,4294966722,4294966722,4294966722
527528953,6470645,6480738,16334,300,4294963692,4643,2300,1330,11939,10678,5290,2891,2740,3869,15304,4294966553,3354,3365,4294966515,3910,4294966715,4294966715,4294966715
527534950,6471097,6482872,16442,419,4294963652,4848,2385,1457,12033,10647,5150,2860,2982,4027,15295,4294966595,3453,3368,4294966425,4059,4294966722,4294966722,4294966722
527540956,6467096,6476930,16570,423,4294963638,5247,2761,1630,12113,10684,5272,2725,3220,4201,15351,4294966442,3368,3465,4294966293,4223,4294966716,4294966716,4294966716
527546962,6462937,6470976,16562,576,4294963499,5759,2978,1716,12128,10581,5589,2633,3317,4397,15376,4294966383,3536,3559,4294966231,4393,4294966712,4294966712,4294966712
527552969,6462588,6472261,16476,653,4294963423,6064,3178,1813,12150,10519,5915,2584,3242,4597,15331,4294966227,3500,3699,4294966144,4536,4294966709,4294966709,4294966709
527558956,6462890,6474605,16484,813,4294963605,6341,3399,1906,12214,10473,6131,2598,3140,4765,15373,4294966136,3549,3794,4294966103,4602,4294966717,4294966717,4294966717
527564958,6463740,6474623,16476,1011,4294963568,6460,3454,2006,12169,10440,6067,2462,3008,4987,15343,4294966066,3438,3911,4294966038,4687,4294966715,4294966715,4294966715
527570958,6464467,6474731,16341,1093,4294963448,6535,3363,2134,12162,10339,6152,2278,2715,5177,15418,4294965874,3363,3969,4294965992,4785,4294966715,4294966715,4294966715
527576958,6466873,6476976,16279,1186,4294963116,6706,3372,2206,12391,10312,5918,2212,2486,5399,15560,4294965661,3140,4010,4294965972,4902,4294966715,4294966715,4294966715
527582964,6467655,6477513,16143,1277,4294962678,7021,3382,2290,12735,10155,5656,2175,2466,5584,15788,4294965459,3000,3990,4294965944,5042,4294966709,4294966709,4294966709
527588949,6467042,6476503,16190,1505,4294962349,7298,3498,2335,12915,10034,5569,2085,2333,5751,16040,4294965214,2761,3724,4294965924,5186,4294966722,4294966722,4294966722
527594952,6468087,6477514,16087,1585,4294962355,7420,3739,2491,13111,9944,5847,2186,2062,5823,16412,4294964901,2235,3469,4294965955,5315,4294966716,4294966716,4294966716
527600962,6468623,6477848,16002,1628,4294962568,7273,3750,2606,13649,9673,6548,2319,1724,5847,16614,4294964565,1986,3060,4294965956,5449,4294966713,4294966713,4294966713
527606943,6468129,6476880,16100,1497,4294962559,6673,3566,2728,13974,9343,7200,2702,1265,5823,17054,4294964163,1666,2636,4294965878,5547,4294966725,4294966725,4294966725
527612964,6469146,6477731,16275,1146,4294962472,6090,3332,2856,14090,8845,8071,3117,481,5676,17376,4294963830,1480,2130,4294965727,5712,4294966710,4294966710,4294966710
527618956,6469439,6477975,16316,715,4294962458,5658,2892,2928,14235,8310,8857,3714,4294966706,5512,17788,4294963345,1350,1586,4294965747,5751,4294966717,4294966717,4294966717
527624947,6468631,6476981,16505,250,4294962754,5251,2380,2976,14409,7518,9295,4131,4294965441,5384,18118,4294962572,1551,973,4294965885,5748,4294966723,4294966723,4294966723
527630943,6468633,6477148,16752,4294967159,4294963518,4618,1671,3053,14544,6778,9288,4547,4294964125,5112,18018,4294961725,1877,770,4294965885,5577,4294966725,4294966725,4294966725
527636943,6468725,6477486,16931,4294966567,4294964496,3601,749,3101,14979,6307,9055,4522,4294962990,4743,17951,4294961117,2037,700,4294966025,5289,4294966725,4294966725,4294966725
527642947,6468981,6477744,17147,4294965482,4294965422,2418,4294967134,3092,14723,5147,8508,3751,4294962491,4818,17400,4294960419,1793,755,4294966459,4917,4294966723,4294966723,4294966723
527648965,6468358,6477056,17190,4294964127,4294966304,1325,4294966436,2930,14962,4633,7652,2954,4294962025,4221,17028,4294959772,1569,1217,4294967018,4314,4294966709,4294966709,4294966709
527654957,6469201,6478291,17353,4294962858,4294967292,519,4294966040,2489,15331,4008,6823,1897,4294962375,4230,17056,4294959104,1303,1207,530,3751,4294966716,4294966716,4294966716
527660957,6469831,6479214,17116,4294961977,1277,114,4294966254,1929,15752,3883,5808,1049,4294962822,4161,16540,4294957993,1523,1137,1242,3216,4294966718,4294966718,4294966718
527666953,6469359,6478631,16565,4294961904,2703,56,4294966450,1348,15481,3370,5494,4294967074,4294963375,3800,16021,4294957245,1822,1335,1316,2348,4294966718,4294966718,4294966718
527672942,6469791,6479475,16038,4294962544,3999,304,4294966661,903,16454,3480,4542,4294966351,4294964201,3987,15631,4294956498,1982,1066,1364,1985,4294966723,4294966723,4294966723
527678973,6470403,6480957,15580,4294963655,4917,1000,4294966633,755,16260,3410,4472,4294966111,4294964649,3874,15704,4294956579,1730,987,880,1748,4294966705,4294966705,4294966705
527684946,6469606,6480508,15547,4294964941,4987,2130,4294966510,875,16913,3509,4310,4294965993,4294965270,3894,15002,4294956726,1776,207,304,1766,4294966722,4294966722,4294966722
527690958,6469840,6480825,15855,4294966166,4137,3448,4294966254,1189,17652,3832,4157,4294966053,4294965913,3735,15709,4294957253,1440,536,4294966039,1647,4294966717,4294966717,4294966717
527696960,6470664,6482284,16370,13,2963,4641,4294966055,1612,17847,3712,4562,4294966683,4294966468,3887,16709,4294957695,1251,322,4294965783,2839,4294966711,4294966711,4294966711
527702951,6470177,6481893,16936,1027,1480,5470,4294966050,2043,17827,3735,4671,4294966886,4294966851,3614,17257,4294958367,1192,35,4294965922,3389,4294966716,4294966716,4294966716
527708971,6469927,6481836,17705,1763,147,5812,4294966412,2451,17380,3421,5063,4294967033,62,3492,17210,4294958943,1104,4294967146,4294965705,3664,4294966705,4294966705,4294966705
527714953,6470930,6482437,18279,2171,4294966269,5725,4294967148,2771,16638,3181,5347,242,215,3086,16794,4294959250,1365,103,4294965649,3823,4294966719,4294966719,4294966719
527720963,6471148,6482523,18854,2382,4294965421,5235,680,2883,16179,3204,5265,704,341,2730,16502,4294959423,1655,586,4294965631,3884,4294966712,4294966712,4294966712
527726949,6470334,6481316,19083,2268,4294964999,4492,1632,2779,15624,3272,5076,1038,481,2416,16381,4294959631,1785,1129,4294965684,3711,4294966722,4294966722,4294966722
527732955,6470863,6481655,19213,2066,4294964710,3683,2299,2439,15128,3450,4938,932,752,2152,16323,4294959557,2051,1588,4294965917,3432,4294966716,4294966716,4294966716
527738969,6471734,6482181,19325,1675,4294964718,2692,2786,1957,14690,3593,4744,562,1048,1974,16374,4294959437,2013,1816,4294966235,3027,4294966706,4294966706,4294966706
527744945,6471693,6481391,19216,1083,4294965050,1692,3129,1369,14199,3446,4748,260,1203,1867,16215,4294959295,2008,1888,4294966450,2582,4294966725,4294966725,4294966725
527750948,6471452,6480555,18613,468,4294965319,802,3369,783,13841,3407,4849,150,1255,1721,16152,4294958993,1986,1752,4294966580,2029,4294966720,4294966720,4294966720
527756946,6471922,6480820,17872,4294967280,4294965540,83,3340,152,13555,3379,4950,31,1121,1500,15998,4294958838,1890,1607,4294966700,1501,4294966722,4294966722,4294966722
527762948,6471428,6479824,17010,4294966838,4294965782,4294966600,3199,4294966901,13655,3290,4961,4294967137,1049,1270,15841,4294958848,1808,1559,4294966899,1034,4294966718,4294966718,4294966718
527770953,6471249,6479404,15958,4294966106,4294966184,4294965830,3003,4294966382,13912,3302,4948,4294967121,1108,871,15757,4294958935,1643,1597,4294967202,486,4294966717,4294966717,4294966717
527776957,6472537,6480880,15031,4294965696,4294966540,4294965503,2855,4294966129,14149,3504,4969,4294967109,1214,498,15657,4294959035,1620,1532,4294967286,91,4294966713,4294966713,4294966713
527782955,6471631,6479325,14173,4294965387,4294966773,4294965319,2454,4294965948,14115,3571,4946,4294967063,1328,177,15718,4294959151,1644,1211,42,4294967084,4294966713,4294966713,4294966713
527788959,6470634,6478303,13343,4294965022,4294967064,4294965209,1951,4294965871,14048,3551,5103,4294967108,1261,4294967155,15706,4294959269,1575,967,173,4294966839,4294966715,4294966715,4294966715
527796967,6471069,6478483,12770,4294964821,158,4294965605,1434,4294965831,14278,3582,5216,4294967136,1131,4294966675,15624,4294959305,1532,861,334,4294966649,4294966707,4294966707,4294966707
527802958,6470598,6477986,12443,4294964952,461,4294966078,674,4294965830,14380,3529,5338,4294967280,1071,4294966340,15465,4294959255,1443,765,371,4294966472,4294966716,4294966716,4294966716
527808953,6469736,6477419,12281,4294965100,583,4294966366,121,4294965958,14564,3566,5371,203,1019,4294966034,15457,4294959382,1413,649,391,4294966328,4294966720,4294966720,4294966720
527814936,6470597,6478157,12286,4294965364,848,4294966704,4294966798,4294966173,14762,3725,5394,196,1007,4294965800,15345,4294959522,1144,474,519,4294966180,4294966727,4294966727,4294966727
527820971,6470881,6478802,12453,4294965600,922,4294966881,4294966220,4294966472,14818,3619,5537,75,966,4294965600,15308,4294959564,969,459,683,4294966029,4294966705,4294966705,4294966705
527826946,6469779,6477252,12860,4294965778,946,4294967076,4294965878,4294966850,14869,3625,5687,4294967289,874,4294965387,15228,4294959663,963,421,957,4294965842,4294966724,4294966724,4294966724
527834956,6470280,6477521,13528,4294965953,969,4294967272,4294965506,62,14965,3449,5892,4294967016,904,4294965255,15079,4294959740,1278,320,1299,4294965606,4294966715,4294966715,4294966715
527840949,6470808,6478725,13927,4294966015,1165,47,4294965279,369,15156,3422,5823,4294966847,914,4294965101,14823,4294959763,1469,318,1424,4294965390,4294966721,4294966721,4294966721
527846947,6469500,6477365,14377,4294965848,1261,25,4294965249,693,15155,3332,5860,4294966689,1053,4294964962,14626,4294959613,1406,439,1547,4294965172,4294966724,4294966724,4294966724
527852938,6470242,6478617,14861,4294965745,1280,24,4294965352,912,15084,3290,5852,4294966499,1209,4294964812,14577,4294959657,1211,482,1635,4294965003,4294966728,4294966728,4294966728
527858940,6470765,6479664,15387,4294965602,1241,4294967208,4294965445,989,14973,3337,5765,4294966393,1269,4294964650,14623,4294959758,1104,369,1739,4294964856,4294966727,4294966727,4294966727
527864949,6470409,6479349,15806,4294965485,1095,4294967090,4294965650,887,14913,3426,5678,4294966323,1318,4294964529,14630,4294959751,1172,13,1847,4294964817,4294966722,4294966722,4294966722
527870952,6469844,6478961,16316,4294965316,1092,4294966934,4294965914,649,14812,3521,5708,4294966365,1410,4294964414,14600,4294959754,1106,4294966837,1870,4294964859,4294966721,4294966721,4294966721
527878959,6470473,6479734,16845,4294965197,1078,4294966658,4294966420,140,14866,3616,5614,4294966536,1544,4294964234,14563,4294959723,1242,4294966231,1734,4294964893,4294966713,4294966713,4294966713
527886947,6470416,6479703,17165,4294965294,944,4294966419,4294966864,4294966815,14651,3804,5683,4294966591,1619,4294964099,14495,4294959708,1298,4294965879,1450,4294964936,4294966723,4294966723,4294966723
527894953,6470702,6479796,17287,4294965549,812,4294966256,4294967172,4294966172,14587,3874,5720,4294966438,1588,4294964016,14510,4294959780,1348,4294965692,1392,4294964954,4294966715,4294966715,4294966715
527902941,6470958,6479487,17159,4294965848,530,4294966141,25,4294965608,14290,3924,5813,4294966035,1246,4294964006,14304,4294959848,1413,4294965515,1444,4294964848,4294966726,4294966726,4294966726
527910961,6470863,6479149,16661,4294966279,351,4294966044,4294967270,4294965174,14027,3793,5900,4294965671,858,4294964024,14023,4294959848,1403,4294965631,1473,4294964717,4294966713,4294966713,4294966713
527918942,6471183,6479535,15779,4294966755,17,4294965913,4294967080,4294964919,13740,3733,5782,4294965425,523,4294964147,13927,4294959877,1252,4294965723,1473,4294964596,4294966726,4294966726,4294966726
527926947,6470461,6479146,15015,4294967066,4294967230,4294965551,4294966731,4294964832,13603,3846,5558,4294965113,263,4294964185,13920,4294960042,1313,4294965553,1578,4294964570,4294966721,4294966721,4294966721
527934949,6470259,6479228,14107,4294967102,4294967128,4294965028,4294966491,4294964899,13531,3833,5335,4294964821,118,4294964219,14009,4294960048,1396,4294965160,1612,4294964529,4294966718,4294966718,4294966718
527942956,6470459,6479883,13345,4294966822,4294967074,4294964414,4294966262,4294965040,13688,3863,5205,4294964726,91,4294964180,14067,4294960023,1424,4294964855,1610,4294964489,4294966716,4294966716,4294966716
527950950,6469332,6478431,13037,4294966577,4294966893,4294963947,4294965955,4294965168,13726,3963,5133,4294964687,43,4294964145,14277,4294960011,1490,4294964835,1598,4294964477,4294966717,4294966717,4294966717
527958944,6470619,6478984,12680,4294966198,4294966923,4294963764,4294965661,4294965375,13838,4085,4974,4294964800,4294967254,4294964066,14452,4294960030,1436,4294964810,1629,4294964481,4294966723,4294966723,4294966723
527966950,6469067,6478255,12684,4294965831,4294966998,4294963353,4294965303,4294965520,13888,4194,4802,4294965013,4294967140,4294963956,14550,4294960171,1389,4294964808,1770,4294964484,4294966717,4294966717,4294966717
527974942,6469722,6478468,12922,4294965178,4294966873,4294963282,4294964816,4294965602,14048,4238,4543,4294965258,4294967140,4294963899,14662,4294960319,1193,4294964974,2002,4294964411,4294966726,4294966726,4294966726
527982951,6469678,6478885,13213,4294964782,4294966848,4294963315,4294964328,4294965489,14296,4343,4431,4294965299,60,4294963789,14908,4294960429,944,4294965199,2450,4294964441,4294966719,4294966719,4294966719
527990959,6468907,6478309,13746,4294964583,4294966619,4294963821,4294963905,4294965282,14448,4561,4430,4294965546,283,4294963761,15327,4294960529,1178,4294965220,2901,4294964508,4294966715,4294966715,4294966715
527998959,6470088,6479748,14446,4294964510,4294966415,4294964166,4294963574,4294965071,14767,4915,4472,4294965770,385,4294963486,15798,4294960625,1647,4294965228,2943,4294964662,4294966713,4294966713,4294966713
528006962,6468630,6478464,15398,4294964793,4294966207,4294964492,4294963238,4294964894,15194,5308,4696,4294966328,546,4294963431,16248,4294960752,2076,4294964973,2939,4294964912,4294966710,4294966710,4294966710
528014945,6470134,6480115,16690,4294965148,4294966243,4294965216,4294963612,4294964741,15300,5915,5055,4294966525,781,4294963218,16363,4294961081,2525,4294964832,2812,4294964974,4294966725,4294966725,4294966725
528022953,6469845,6479682,17720,4294965503,4294966178,4294965093,4294963429,4294964907,15561,6774,5421,4294966808,853,4294963184,16667,4294961359,3028,4294965158,2467,4294965285,4294966716,4294966716,4294966716
528030961,6469250,6478940,18672,4294965585,4294966161,4294965411,4294963833,4294965007,15714,7572,5810,4294967214,790,4294963354,16807,4294961951,3416,4294965335,2012,4294965453,4294966709,4294966709,4294966709
528038965,6469938,6479948,19631,4294965854,4294965460,4294965794,4294963786,4294965192,15585,8274,6153,69,760,4294963681,16860,4294962405,3783,4294965691,1615,4294965586,4294966712,4294966712,4294966712
528046951,6468279,6477817,20508,4294966109,4294964896,4294966487,4294964082,4294965411,15292,8931,6334,18,755,4294964012,16648,4294963074,4086,4294966112,1189,4294965403,4294966719,4294966719,4294966719
528054934,6469056,6478672,20388,4294966811,4294964313,4294967080,4294964073,4294965710,14803,9297,6431,4294967026,794,4294964444,16372,4294963475,4160,4294966888,963,4294965365,4294966730,4294966730,4294966730
528062949,6468066,6477565,20092,4294967214,4294963881,4294967058,4294964080,4294966006,14211,9557,6496,4294966831,798,4294964899,16188,4294963614,4006,371,688,4294965277,4294966723,4294966723,4294966723
528070953,6468409,6477817,19587,4294967204,4294963394,4294966654,4294964380,4294966278,13712,9879,6413,4294966636,695,4294965258,16212,4294963985,4079,1016,713,4294965214,4294966719,4294966719,4294966719
528078945,6469302,6478301,18446,636,4294962728,4294966868,4294964866,4294966332,13252,9940,6241,4294966425,587,4294965600,16033,4294964238,3993,1400,402,4294965146,4294966724,4294966724,4294966724
528086959,6469172,6478500,17487,911,4294962036,4294966916,4294966120,4294966647,13054,9924,5845,4294966231,411,4294965669,16130,4294964459,3923,1553,218,4294965093,4294966713,4294966713,4294966713
528094961,6469342,6479531,16392,2037,4294961478,4294966369,4294966849,4294967092,12856,10117,5584,4294966411,308,4294965746,16579,4294964962,3998,1536,4294967161,4294964906,4294966714,4294966714,4294966714
528102942,6470957,6479798,15800,2242,4294961047,4294965382,222,331,12258,10585,5492,4294966730,19,4294965748,16391,4294965317,4377,1954,4294966663,4294965041,4294966725,4294966725,4294966725
528108946,6472470,6481241,15636,2542,4294960659,4294964821,542,685,12304,10902,5460,4294967172,4294966797,4294965878,16630,4294965709,4619,1847,4294966430,4294965004,4294966724,4294966724,4294966724
528116950,6476546,6485618,15499,2195,4294960420,4294964529,512,983,12397,11387,5570,226,4294967034,4294965731,16768,4294966200,4888,1631,4294966131,4294965164,4294966718,4294966718,4294966718
528122953,6474458,6483813,15443,2090,4294960178,4294964686,67,892,12249,11650,5695,926,4294967254,4294965672,16972,4294966667,4740,2089,4294965830,4294965342,4294966715,4294966715,4294966715
528128963,6469332,6475621,15723,1687,4294960159,4294964506,4294966729,698,12018,11840,6076,1831,136,4294965777,17113,4294966832,4531,2320,4294965859,4294965649,4294966714,4294966714,4294966714
528136959,6467383,6474057,16067,1043,4294960162,4294964876,4294965754,144,11704,12566,6546,2352,126,4294965617,17555,4294967237,4203,2181,4294966045,4294965627,4294966714,4294966714,4294966714
528144953,6466772,6476465,16585,530,4294960519,4294964993,4294964811,4294966620,11916,12567,6910,2578,256,4294965371,17627,99,3871,2487,4294966415,4294965687,4294966717,4294966717,4294966717
528150955,6468804,6477496,17111,516,4294960649,4294965413,4294964304,4294965828,11982,12330,6734,3043,261,4294965441,17592,4294967171,3846,2218,4294966795,4294965619,4294966714,4294966714,4294966714
528158952,6470014,6478543,17873,692,4294961236,4294964997,4294963952,4294964864,12209,12195,6771,2870,111,4294965321,17596,4294966894,3548,1826,4294967242,4294965417,4294966716,4294966716,4294966716
528166967,6470647,6478787,18392,1279,4294961910,4294965070,4294964105,4294964102,12479,11790,6660,2639,182,4294965284,17633,4294966784,3332,2056,350,4294965535,4294966709,4294966709,4294966709
528174958,6471900,6479915,18570,1824,4294962954,4294964689,4294964674,4294963748,12787,11491,6331,2266,289,4294965288,17655,4294966705,2723,1288,661,4294965371,4294966714,4294966714,4294966714
528182954,6472001,6479787,18253,2184,4294964123,4294964552,4294965551,4294963815,12995,11129,6513,2010,250,4294965434,17260,4294966637,2530,1423,1060,4294965262,4294966715,4294966715,4294966715
528190967,6471017,6478433,17702,2309,4294965337,4294964498,4294966344,4294964136,13076,10736,6448,2077,177,4294965644,16842,4294966701,2649,1455,1345,4294965445,4294966709,4294966709,4294966709
528198964,6472366,6480474,17237,2234,4294966116,4294964787,4294966968,4294964642,13015,10522,6492,1722,124,4294965791,16413,4294966579,2972,1780,1339,4294965721,4294966713,4294966713,4294966713
528206951,6470931,6478545,16961,2033,4294966749,4294965198,116,4294965261,13157,10653,6387,1071,203,4294966034,16170,4294966425,3346,2015,1307,4294966009,4294966720,4294966720,4294966720
528212948,6471759,6480128,16662,1734,4294966995,4294965644,204,4294965809,13192,10937,6058,830,252,4294966244,16082,4294966530,3446,2152,1107,4294966267,4294966718,4294966718,4294966718
528218965,6471845,6480413,16468,1398,4294966698,4294966009,33,4294966266,13200,10829,5859,427,372,4294966328,16072,4294966611,3404,2196,953,4294966560,4294966711,4294966711,4294966711
528224962,6470250,6478624,16284,980,4294966137,4294966455,4294967174,4294966640,13243,10895,5829,211,720,4294966736,15859,4294966508,3449,2091,828,4294966930,4294966714,4294966714,4294966714
528230953,6470596,6478894,16224,716,4294965372,4294966941,4294967151,4294966961,13101,10767,5987,458,834,4294966930,15832,4294966498,3408,1858,790,23,4294966717,4294966717,4294966717
528236953,6470923,6479275,16117,385,4294964544,12,10,4294967215,13138,10676,6071,665,998,4294967100,15803,4294966248,3623,1561,788,391,4294966718,4294966718,4294966718
528242970,6470790,6479269,16078,418,4294963838,390,253,100,13064,10607,6225,839,1163,4294967267,15748,4294966055,3664,1430,702,669,4294966705,4294966705,4294966705
528248953,6470327,6478577,16191,537,4294963194,526,637,332,12823,10634,6288,1028,1299,152,15754,4294965897,3812,1439,617,899,4294966720,4294966720,4294966720
528254951,6471015,6479598,16127,724,4294962903,945,1040,535,12621,10571,6183,1056,1393,362,15834,4294965873,3841,1493,561,1053,4294966718,4294966718,4294966718
528260968,6471193,6479949,16071,1072,4294962936,1282,1314,716,12326,10497,6178,1061,1538,585,15748,4294965927,3708,1686,472,1119,4294966708,4294966708,4294966708
528266953,6470417,6479043,16077,1360,4294963128,1390,1507,861,12110,10412,6055,902,1638,911,15890,4294966039,3660,1857,429,1207,4294966719,4294966719,4294966719
528272942,6471154,6479997,15991,1614,4294963406,1455,1551,969,11853,10332,5879,846,1640,1155,15823,4294966166,3898,1967,432,1384,4294966724,4294966724,4294966724
528278958,6471766,6480575,15735,1706,4294963737,1326,1336,942,11601,10299,5866,847,1664,1411,15622,4294966121,4093,2092,364,1474,4294966713,4294966713,4294966713
528284948,6471611,6480037,15813,1738,4294963667,1270,1110,867,11550,10320,5725,741,1673,1620,15517,4294966009,4309,2321,314,1604,4294966718,4294966718,4294966718
528290950,6471911,6480432,15721,1725,4294963493,1367,932,668,11339,10200,5737,636,1637,1819,15434,4294965845,4316,2517,282,1661,4294966717,4294966717,4294966717
528296949,6472670,6481504,15597,1935,4294963059,1471,686,386,11326,10145,5724,663,1531,1962,15520,4294965731,4545,2714,356,1738,4294966721,4294966721,4294966721
528302950,6472247,6481034,15549,2061,4294962942,1391,491,93,11453,9969,5836,713,1509,2041,15622,4294965648,4643,2775,412,1788,4294966719,4294966719,4294966719
528308961,6471875,6480473,15644,1891,4294962612,908,154,4294967196,11476,10008,5886,776,1439,2113,15474,4294965655,4736,2842,411,1766,4294966714,4294966714,4294966714
528314948,6472360,6481020,15499,2053,4294962519,1052,42,4294966953,11371,9981,6056,853,1290,2172,15515,4294965741,4587,2703,465,1867,4294966724,4294966724,4294966724
528320961,6472656,6481733,15473,2022,4294962464,853,4294967267,4294966869,11397,10055,5930,882,1174,2260,15390,4294965816,4638,2493,536,1990,4294966712,4294966712,4294966712
528326951,6471600,6480466,15510,1877,4294962403,637,4294967192,4294966849,11443,10093,5880,958,1101,2323,15425,4294966042,4441,2383,500,2118,4294966719,4294966719,4294966719
528332949,6471314,6480491,15434,1820,4294962583,667,4294967198,4294966949,11385,10147,5833,1051,1012,2410,15563,4294966086,4442,2257,530,2241,4294966719,4294966719,4294966719
528338956,6471550,6480928,15468,1615,4294962730,510,4294967127,4294967109,11507,10081,5778,1199,941,2529,15531,4294966247,4445,2059,614,2396,4294966717,4294966717,4294966717
528344938,6470588,6479742,15573,1595,4294962974,629,4294967218,4294967240,11625,10189,5797,1387,1032,2580,15584,4294966361,4435,2175,557,2501,4294966728,4294966728,4294966728
528350971,6470231,6479553,15673,1540,4294963190,776,142,128,11631,10184,5948,1532,1257,2616,15589,4294966357,4258,2303,565,2628,4294966705,4294966705,4294966705
528356939,6470397,6480382,15751,1527,4294963355,981,348,287,11721,10212,6093,1713,1551,2648,15713,4294966378,4162,2536,531,2688,4294966727,4294966727,4294966727
528362951,6469598,6479699,15975,1618,4294963523,1199,721,473,11879,10182,6172,1882,1832,2649,15770,4294966449,4101,2695,570,2804,4294966719,4294966719,4294966719
528368948,6468694,6478478,16201,1619,4294963670,1501,1198,659,11937,10213,6238,2079,2195,2633,15830,4294966512,4037,2865,585,2771,4294966718,4294966718,4294966718
528374947,6469382,6479359,16359,1734,4294963762,1761,1537,807,11919,10227,6378,2280,2506,2678,15756,4294966552,4185,2960,525,2821,4294966721,4294966721,4294966721
528380951,6469410,6479256,16502,1807,4294963863,1800,1881,985,11907,10252,6358,2465,2752,2709,15729,4294966555,4296,3016,572,2914,4294966719,4294966719,4294966719
528386974,6468776,6478491,16578,1675,4294963848,2003,2161,1124,11836,10259,6358,2559,2982,2829,15666,4294966460,4371,3120,530,2856,4294966704,4294966704,4294966704
528392954,6468529,6478290,16663,1573,4294963851,2348,2376,1174,11761,10319,6333,2380,3114,2955,15546,4294966450,4398,3252,404,2882,4294966717,4294966717,4294966717
528398959,6469344,6479153,16576,1291,4294963849,2722,2546,1217,11709,10316,6398,2136,3288,3057,15349,4294966433,4225,3403,286,2904,4294966713,4294966713,4294966713
528404949,6468974,6478802,16399,1132,4294963942,3102,2557,1220,11626,10308,6481,1951,3504,3228,15270,4294966539,3975,3529,189,2980,4294966717,4294966717,4294966717
528410969,6468908,6478422,16264,1038,4294963834,3457,2543,1247,11568,10326,6419,1853,3475,3396,15184,4294966553,3932,3519,112,3056,4294966706,4294966706,4294966706
528416953,6469068,6478788,16043,1005,4294963673,3845,2452,1274,11493,10347,6437,1652,3374,3557,14945,4294966476,4243,3377,4294967226,3177,4294966718,4294966718,4294966718
528422961,6468784,6478473,15898,1201,4294963576,4078,2422,1368,11360,10269,6346,1494,3244,3669,14907,4294966452,4228,3303,4294967029,3317,4294966712,4294966712,4294966712
528428953,6468185,6477784,15806,1120,4294963516,4229,2413,1545,11355,10136,6359,1411,3066,3768,14964,4294966275,4119,3143,4294966800,3334,4294966718,4294966718,4294966718
528434938,6468783,6478453,15695,1347,4294963454,4357,2484,1694,11306,9994,6364,1359,2873,3845,14871,4294966265,4233,3053,4294966637,3474,4294966728,4294966728,4294966728
528440962,6468594,6478118,15487,1269,4294963421,4197,2593,1909,11174,9889,6319,1219,2726,3914,14878,4294966181,4385,2988,4294966378,3539,4294966714,4294966714,4294966714
528446941,6467819,6476746,15321,1089,4294963354,4299,2687,2073,11104,9738,6385,1061,2629,3971,14853,4294966098,4400,2889,4294966189,3624,4294966724,4294966724,4294966724
528452960,6468670,6477670,15232,1063,4294963221,4455,2861,2158,11115,9687,6442,974,2483,4027,14800,4294966011,4369,2832,4294965979,3682,4294966712,4294966712,4294966712
528458944,6468849,6478123,14974,947,4294963092,4700,2894,2211,11223,9682,6492,919,2398,4079,14928,4294965710,4132,2860,4294965953,3804,4294966723,4294966723,4294966723
528464952,6468707,6477783,14832,1034,4294962973,4828,2722,2178,11467,9708,6632,1035,2330,4207,14934,4294965495,3997,2763,4294965858,3796,4294966716,4294966716,4294966716
528470967,6468764,6477711,14678,918,4294962972,4600,2466,2155,11880,9538,6647,1214,2158,4351,15192,4294965211,3861,2660,4294965814,3897,4294966708,4294966708,4294966708
528476978,6469052,6478521,14660,853,4294962919,4624,2194,2084,12083,9243,6898,1578,1870,4420,15285,4294964786,3773,2374,4294965725,3962,4294966703,4294966703,4294966703
528482966,6468957,6477889,14706,808,4294962861,4706,1856,2053,12487,8900,7040,1899,1388,4398,15436,4294964400,3717,1960,4294965559,3941,4294966710,4294966710,4294966710
528488947,6468483,6476805,14902,806,4294963088,4489,1364,2076,12781,8348,7311,2183,840,4367,15622,4294963899,3522,1611,4294965527,3923,4294966721,4294966721,4294966721
528494947,6469344,6477709,15211,762,4294963515,3988,768,2224,13123,7865,7532,2453,293,4229,15731,4294963462,3566,1321,4294965451,3817,4294966720,4294966720,4294966720
528500963,6469458,6477531,15434,416,4294963909,3367,72,2452,13362,7147,7858,2714,4294966920,4110,16008,4294962856,3275,1216,4294965399,3701,4294966715,4294966715,4294966715
528506954,6468617,6476556,15677,4294966994,4294964163,3160,4294966652,2629,13920,6704,8039,2955,4294966225,3971,16342,4294962180,2851,1087,4294965390,3567,4294966718,4294966718,4294966718
528512945,6469075,6477377,15968,4294966388,4294964347,3312,4294965990,2709,14450,6159,8273,3346,4294965494,3755,16677,4294961470,2546,811,4294965088,3474,4294966726,4294966726,4294966726
528518955,6469205,6477816,16119,4294966008,4294964771,3556,4294965551,2673,14835,5388,8608,3411,4294965039,3702,17057,4294960770,2460,575,4294965302,3302,4294966717,4294966717,4294966717
528524956,6468277,6476890,16414,4294965392,4294965258,3011,4294965028,2680,15439,4894,8378,3349,4294964504,3403,17240,4294960102,2418,314,4294965394,3104,4294966715,4294966715,4294966715
528530963,6468463,6477551,16876,4294964694,4294965858,1992,4294964395,2805,15682,4494,8289,3363,4294964150,2993,17506,4294959093,2533,129,4294965395,2930,4294966711,4294966711,4294966711
528536943,6468517,6478181,17648,4294963785,4294966450,596,4294963651,2952,16068,4080,7833,2939,4294963625,2613,17527,4294958337,2436,170,4294965398,2619,4294966723,4294966723,4294966723
528542952,6467857,6477840,18260,4294962880,4294967283,4294966814,4294963173,3010,17492,4053,6788,2235,4294963882,2749,17562,4294957801,2401,190,4294965680,2347,4294966719,4294966719,4294966719
528550943,6466910,6477324,18867,4294962481,1013,4294966701,4294963018,2957,17984,3719,6039,1468,4294964458,2652,17122,4294957182,2287,215,4294966235,2004,4294966725,4294966725,4294966725
528556960,6467961,6479553,18812,4294962652,1864,324,4294963424,2843,17627,3397,6021,620,4294965022,2470,16591,4294956926,2435,503,4294966417,1448,4294966712,4294966712,4294966712
528562946,6466796,6478766,18519,4294963145,2355,1700,4294963880,2820,17298,3239,5816,4294967080,4294965620,2547,16224,4294956558,2411,609,4294966734,1589,4294966723,4294966723,4294966723
528568946,6466643,6478477,18149,4294963516,2405,3084,4294964364,2849,17064,3432,5531,4294966451,4294965933,2575,15954,4294956558,2373,702,4294966644,1505,4294966723,4294966723,4294966723
528574951,6467835,6479530,17858,4294964015,1866,4453,4294964938,2776,17099,3496,5453,4294966552,4294966022,2546,16021,4294956840,2207,440,4294966451,1403,4294966717,4294966717,4294966717
528580968,6467960,6479035,17680,4294964749,1140,5329,4294965492,2629,17357,3671,5353,4294966631,4294966356,2567,16070,4294957130,2079,137,4294966347,1384,4294966710,4294966710,4294966710
528586950,6467657,6478398,17547,4294965570,416,5739,4294966158,2479,17192,3506,5497,4294966900,4294966570,2634,15970,4294957672,2096,210,4294966245,1509,4294966717,4294966717,4294966717
528592942,6468243,6478670,17425,4294966313,4294966950,5527,4294966821,2301,17120,3416,5373,4294967151,4294966759,2679,15914,4294958078,2097,396,4294966259,1635,4294966726,4294966726,4294966726
528600952,6468789,6478241,17425,4294966859,4294966473,4915,486,2015,16515,3098,5324,583,4294966871,2575,15878,4294958310,2099,872,4294966224,1884,4294966716,4294966716,4294966716
528606940,6469121,6478158,17349,4294967147,4294966332,4387,1153,1763,16171,2972,5235,929,4294967003,2429,15653,4294958470,1961,1119,4294966250,2018,4294966727,4294966727,4294966727
528612967,6470832,6479001,17279,16,4294966327,3914,1530,1400,16037,2907,5147,1232,4294967194,2240,16208,4294958538,1929,1173,4294966245,2122,4294966708,4294966708,4294966708
528618966,6471275,6478687,17155,116,4294966286,3515,1566,960,15672,2865,5042,1478,163,2044,16146,4294958700,1939,1044,4294966383,2100,4294966710,4294966710,4294966710
528624962,6470509,6477536,16928,177,4294966345,3109,1451,525,15409,2836,5011,1558,506,1836,16054,4294958814,2012,1039,4294966348,2043,4294966712,4294966712,4294966712
528630966,6471015,6477925,16773,4294967262,4294966274,2660,1312,115,15042,2822,5066,1627,726,1591,16172,4294959025,2165,1166,4294966496,1961,4294966711,4294966711,4294966711
528636974,6471459,6478327,16585,4294967125,4294966128,2214,1126,4294967012,14671,3000,5032,1526,781,1371,16212,4294959374,2163,1291,4294966667,1869,4294966705,4294966705,4294966705
528642976,6471460,6478291,16406,4294966958,4294966179,1701,850,4294966662,14498,3331,5157,1389,919,1119,16102,4294959666,2362,1440,4294966848,1768,4294966704,4294966704,4294966704
528648951,6470681,6477167,16135,4294966749,4294966100,1338,603,4294966368,14322,3602,5206,1392,959,954,16029,4294959912,2414,1664,4294966947,1617,4294966719,4294966719,4294966719
528654954,6471278,6477976,15776,4294966604,4294966057,1237,391,4294966186,14212,4025,5244,1387,1011,802,15833,4294959977,2433,1858,4294967104,1473,4294966720,4294966720,4294966720
528660946,6471146,6478832,15532,4294966562,4294965952,1332,138,4294966067,14176,4244,5168,1260,1189,748,15633,4294960023,2292,2027,4294967268,1243,4294966724,4294966724,4294966724
528666954,6470117,6478005,15249,4294966532,4294965951,1606,4294967202,4294966002,14174,4527,5044,1249,1268,639,15444,4294959962,2247,2129,176,1030,4294966716,4294966716,4294966716
528672951,6471603,6479130,14914,4294966507,4294965999,1902,4294967040,4294966043,14192,4704,5167,1130,1316,586,15367,4294959931,2056,2183,412,781,4294966721,4294966721,4294966721
528678965,6473846,6480561,14566,4294966520,4294966131,2086,4294966856,4294966148,14376,4731,5237,1004,1287,537,15322,4294959976,1877,2121,677,574,4294966712,4294966712,4294966712
528684943,6475015,6482007,14287,4294966373,4294966280,2168,4294966666,4294966288,14475,4624,5274,1039,1363,334,15360,4294960005,1804,2062,906,374,4294966726,4294966726,4294966726
528690951,6474635,6483493,14028,4294966261,4294966496,2133,4294966476,4294966432,14407,4491,5377,1158,1299,186,15337,4294959974,1758,1958,1159,179,4294966719,4294966719,4294966719
528696951,6471255,6478237,13711,4294966197,4294966768,1910,4294966227,4294966564,14243,4463,5440,1299,1251,4294967262,15316,4294960133,1770,1859,1304,4294967283,4294966716,4294966716,4294966716
528704961,6466695,6471412,13425,4294966009,4294967045,1459,4294965875,4294966737,14085,4352,5566,1359,1224,4294966928,15183,4294960209,1710,1869,1439,4294967094,4294966713,4294966713,4294966713
528712938,6465517,6474354,13446,4294965898,94,931,4294965646,4294966829,14010,4366,5855,1294,1160,4294966682,15205,4294960308,1620,2030,1521,4294966920,4294966725,4294966725,4294966725
528718959,6467125,6476210,13568,4294965933,342,530,4294965522,4294966775,14113,4381,5721,1084,996,4294966489,15041,4294960372,1687,2153,1551,4294966776,4294966712,4294966712,4294966712
528724958,6467053,6474886,13820,4294965919,310,103,4294965375,4294966716,14097,4323,5429,738,933,4294966274,14944,4294960322,1778,2173,1461,4294966606,4294966713,4294966713,4294966713
528730974,6468229,6476683,14116,4294965961,300,4294967080,4294965408,4294966615,14278,4260,5572,361,982,4294966089,14951,4294960225,1735,2187,1404,4294966437,4294966704,4294966704,4294966704
528736940,6469064,6477811,14635,4294965997,174,4294966717,4294965470,4294966467,14343,4182,5596,105,1018,4294965869,14923,4294960308,1780,2107,1391,4294966272,4294966727,4294966727,4294966727
528742949,6469392,6478161,15263,4294965925,4294967287,4294966479,4294965721,4294966237,14465,4120,5446,4294967256,1094,4294965673,14949,4294960324,1751,1944,1444,4294966069,4294966721,4294966721,4294966721
528750945,6469076,6477464,15959,4294966019,4294967212,4294966048,4294966021,4294965834,14491,4082,5782,4294967137,1177,4294965398,14922,4294960540,1571,1615,1474,4294965922,4294966725,4294966725,4294966725
528758956,6470444,6478240,16393,4294965939,4294967210,4294965583,4294966143,4294965357,14545,4138,6171,4294967176,1109,4294965243,14900,4294960642,1381,1370,1531,4294965889,4294966715,4294966715,4294966715
528766971,6469229,6477665,17001,4294965916,4294967129,4294965235,4294966434,4294964891,14409,4223,6388,4294967272,1047,4294965149,14905,4294960925,1279,1155,1651,4294965838,4294966708,4294966708,4294966708
528774960,6469744,6478504,17170,4294966077,4294966807,4294964969,4294966737,4294964459,14285,4304,6171,4294967255,955,4294965128,14845,4294961028,1492,978,1726,4294965727,4294966713,4294966713,4294966713
528782959,6469837,6478950,17197,4294966342,4294966678,4294964864,4294966965,4294964167,14056,4510,5940,4294967059,770,4294965154,14901,4294961062,1553,492,1609,4294965767,4294966715,4294966715,4294966715
528790956,6469033,6478312,16866,4294966657,4294966364,4294964841,4294967212,4294963937,13924,4569,5649,4294966891,648,4294965140,14870,4294961088,1445,55,1420,4294965663,4294966715,4294966715,4294966715
528798949,6470048,6479519,16508,4294966999,4294965946,4294964752,186,4294963774,13940,4667,5557,4294966699,579,4294965124,14957,4294961214,1198,4294966986,1305,4294965574,4294966720,4294966720,4294966720
528806956,6468643,6477706,16041,101,4294965558,4294964467,486,4294963716,13898,4714,5632,4294966605,453,4294965030,15213,4294961301,978,4294966502,1262,4294965489,4294966714,4294966714,4294966714
528814947,6469983,6479754,15405,275,4294965585,4294964103,700,4294963781,13927,4855,5763,4294966553,398,4294964786,15356,4294961246,1011,4294965935,1276,4294965256,4294966718,4294966718,4294966718
528822966,6469886,6479321,14976,408,4294965812,4294963663,684,4294963963,13949,4762,5916,4294966331,300,4294964518,15610,4294961421,1070,4294965559,1324,4294965014,4294966709,4294966709,4294966709
528830952,6470196,6478908,14636,219,4294965947,4294963222,330,4294964148,13723,4734,6142,4294966214,163,4294964235,15632,4294961702,1172,4294965191,1393,4294964746,4294966721,4294966721,4294966721
528838948,6470720,6479726,14364,4294967172,4294966133,4294962930,4294967184,4294964300,13540,4795,6204,4294965878,37,4294963940,15542,4294961879,1164,4294964696,1626,4294964394,4294966720,4294966720,4294966720
528846968,6469702,6478413,14159,4294966825,4294966127,4294962644,4294966540,4294964368,13431,4854,6017,4294965284,4294967275,4294963718,15569,4294961989,983,4294964559,1883,4294964068,4294966709,4294966709,4294966709
528854954,6470997,6479927,14207,4294966516,4294966280,4294962308,4294966012,4294964379,13336,5151,5866,4294964721,8,4294963512,15527,4294962000,889,4294964347,2232,4294963735,4294966718,4294966718,4294966718
528862955,6470775,6479725,14199,4294966123,4294966207,4294962129,4294965551,4294964297,13242,5350,5507,4294964253,49,4294963277,15624,4294962076,954,4294964149,2543,4294963517,4294966717,4294966717,4294966717
528870957,6470932,6479971,14430,4294965980,4294966059,4294962031,4294965388,4294964191,13216,5534,5273,4294963935,126,4294962984,15758,4294962118,1362,4294963793,2708,4294963245,4294966718,4294966718,4294966718
528878958,6471356,6480527,14745,4294965784,4294965808,4294962102,4294965422,4294964139,13246,5721,5144,4294963761,229,4294962658,15816,4294962201,1610,4294963590,2698,4294963021,4294966715,4294966715,4294966715
528886964,6471184,6481004,15228,4294965790,4294965267,4294962453,4294965586,4294964139,13297,5986,5096,4294963736,360,4294962278,15958,4294962214,1874,4294963463,2595,4294962872,4294966711,4294966711,4294966711
528894968,6470936,6480395,15708,4294965843,4294965080,4294963070,4294966100,4294964218,13394,6282,5139,4294963953,513,4294961926,16051,4294962272,2323,4294963341,2446,4294962823,4294966706,4294966706,4294966706
528902970,6470599,6480229,16455,4294966076,4294964976,4294963518,4294966504,4294964433,13512,6666,5460,4294964237,731,4294961648,16123,4294962333,2905,4294963346,2257,4294962801,4294966709,4294966709,4294966709
528910957,6470574,6480234,17162,4294966478,4294965003,4294963667,4294966833,4294964717,13629,7133,5646,4294964735,1176,4294961376,16205,4294962399,3232,4294963598,2166,4294962878,4294966716,4294966716,4294966716
528918954,6470455,6480452,17653,4294966595,4294964948,4294963688,4294967030,4294965051,13732,7649,6015,4294965162,1430,4294961271,16210,4294962560,3632,4294963954,2053,4294962944,4294966715,4294966715,4294966715
528926951,6470019,6479771,17962,4294966672,4294964600,4294963898,4294967070,4294965369,13815,8119,6476,4294965347,1613,4294961276,16069,4294962796,3966,4294964488,1773,4294963091,4294966722,4294966722,4294966722
528934954,6470151,6480096,18246,4294966732,4294963947,4294964153,4294967036,4294965695,13777,8587,6852,4294965556,1739,4294961501,15950,4294963053,4236,4294965098,1527,4294963257,4294966715,4294966715,4294966715
528942935,6470279,6480595,18074,4294966910,4294963608,4294964681,4294967193,4294966010,13779,9021,7055,4294965584,1732,4294961785,15933,4294963241,4580,4294965713,1251,4294963425,4294966727,4294966727,4294966727
528950957,6468958,6478107,18010,117,4294963201,4294965027,175,4294966467,13637,9411,7082,4294965594,1775,4294962139,15845,4294963534,4777,4294966196,974,4294963637,4294966712,4294966712,4294966712
528958949,6469710,6478257,17804,695,4294963066,4294965380,392,4294967044,13626,9888,6822,4294965581,1754,4294962486,16079,4294963838,4777,4294966645,406,4294963902,4294966720,4294966720,4294966720
528966956,6468271,6477592,17367,1338,4294962793,4294965306,293,427,13501,10241,6822,4294965490,1757,4294962725,15978,4294964191,4747,4294966871,49,4294964229,4294966715,4294966715,4294966715
528972948,6469206,6478998,17327,1671,4294962616,4294964860,143,931,13196,10534,7062,4294965603,1626,4294962930,15901,4294964562,4893,4294967002,4294967035,4294964514,4294966722,4294966722,4294966722
528980956,6468430,6477436,17166,1903,4294962348,4294964275,4294967148,1440,13019,10929,7161,4294965952,1335,4294963078,15837,4294964726,5189,4294967123,4294966687,4294964971,4294966714,4294966714,4294966714
528988951,6468307,6477522,17066,1966,4294961812,4294963654,4294966897,1819,12933,11300,7068,4294966061,890,4294963188,16723,4294965245,5152,488,4294966092,4294965408,4294966721,4294966721,4294966721
528996963,6469115,6478073,17168,1897,4294961291,4294963132,4294966573,1871,12880,11365,7058,4294966208,606,4294963254,17323,4294965462,4883,98,4294966251,4294965583,4294966709,4294966709,4294966709
529004935,6469115,6478189,17180,1712,4294960779,4294962941,4294966318,1652,12700,11627,7009,4294966487,352,4294963294,17523,4294965837,4455,4294967208,4294966463,4294965573,4294966727,4294966727,4294966727
529012950,6469443,6478454,17077,1317,4294960526,4294963061,4294966370,1141,12577,11799,6818,4294966612,170,4294963336,17928,4294966277,4131,253,4294966725,4294965514,4294966723,4294966723,4294966723
529020947,6470554,6480028,16798,798,4294960797,4294963240,4294966356,411,12333,11737,6674,4294966665,4294967250,4294963410,18080,4294966543,3985,562,4294967258,4294965414,4294966721,4294966721,4294966721
529028952,6469929,6478448,16546,673,4294961267,4294963307,4294966414,4294966835,12285,11458,6537,4294966722,4294967166,4294963513,17556,4294966361,4172,623,414,4294965160,4294966714,4294966714,4294966714
529036970,6471303,6480118,16338,623,4294962010,4294963414,4294966356,4294966082,12363,11280,6385,4294966687,4294966989,4294963650,17409,4294966261,4351,1640,382,4294964858,4294966707,4294966707,4294966707
529044951,6470452,6478922,16090,699,4294962755,4294963235,4294966204,4294965475,12278,11093,6226,4294966827,4294966755,4294963912,16891,4294965994,4070,1394,590,4294964376,4294966718,4294966718,4294966718
529052945,6470150,6478540,16077,788,4294963557,4294963102,4294966075,4294965020,12405,10988,6176,4294966886,4294966415,4294964213,16822,4294966165,3779,1340,711,4294964162,4294966723,4294966723,4294966723
529060940,6470520,6479033,16128,847,4294964329,4294963243,4294966166,4294964848,12747,10956,6155,4294967003,4294966177,4294964575,16452,4294966210,3602,1117,792,4294964198,4294966727,4294966727,4294966727
529068958,6469557,6477952,16427,965,4294964810,4294963353,4294966311,4294964903,13035,10892,6170,4294967194,4294966243,4294964868,16211,4294966552,3271,900,935,4294964502,4294966714,4294966714,4294966714
529076966,6470519,6479650,16635,878,4294965405,4294963733,4294966289,4294965226,13081,10953,6275,104,4294966300,4294965187,16025,4294966947,3006,622,1165,4294965052,4294966708,4294966708,4294966708
529084947,6469556,6478172,17065,604,4294965931,4294964210,4294966477,4294965659,13101,10964,6345,141,4294966672,4294965494,15773,4294966992,3075,484,1411,4294965652,4294966722,4294966722,4294966722
529092960,6470104,6478744,17218,409,4294966018,4294964741,4294966362,4294966168,13067,10971,6454,47,4294966916,4294965765,15531,4294967044,3265,421,1577,4294966136,4294966712,4294966712,4294966712
529100963,6469940,6478972,17278,44,4294965726,4294965732,4294966411,4294966734,12916,11004,6600,4294967260,4294967098,4294966174,15315,4294967036,3621,401,1539,4294966554,4294966709,4294966709,4294966709
529108949,6469180,6478399,17307,4294967214,4294965197,4294966671,4294966578,4294967284,12882,11067,6762,4294967167,14,4294966565,15313,4294966986,3899,322,1373,4294966956,4294966722,4294966722,4294966722
529116954,6469871,6479388,17528,4294967293,4294964535,99,4294966866,597,12777,11114,6879,4294967057,166,4294966904,15323,4294966953,4080,98,1104,55,4294966715,4294966715,4294966715
529122953,6470130,6479872,17493,140,4294964226,386,4294967255,1022,12654,11117,6886,4294966891,238,4294967165,15256,4294966935,4236,4294967126,867,339,4294966715,4294966715,4294966715
529128949,6469193,6478793,17535,328,4294963877,731,506,1336,12427,11132,6855,4294966632,349,75,15084,4294966894,4348,4294966884,586,560,4294966720,4294966720,4294966720
529134960,6469495,6479014,17338,566,4294963815,965,1125,1552,12249,11037,6907,4294966468,435,339,15203,4294966795,4388,4294966788,410,802,4294966717,4294966717,4294966717
529140954,6469367,6478804,17103,956,4294963726,1195,1597,1554,12032,10839,6881,4294966321,513,599,15245,4294966818,4409,4294966516,235,923,4294966719,4294966719,4294966719
529146954,6468590,6477541,16848,1358,4294963926,1388,2010,1424,11744,10801,6998,4294966244,527,824,15277,4294966764,4489,4294966384,141,1043,4294966719,4294966719,4294966719
529152949,6469183,6478041,16441,1605,4294964076,1435,2264,1277,11572,10692,6924,4294966187,554,1104,15338,4294966662,4658,4294966244,47,1116,4294966719,4294966719,4294966719
529158977,6469482,6478141,16054,1966,4294964014,1493,2155,1066,11283,10575,6872,4294966200,500,1364,15388,4294966681,4742,4294966199,14,1151,4294966703,4294966703,4294966703
529164936,6469102,6477520,15754,2208,4294963877,1569,1922,808,11070,10578,6734,4294966256,431,1573,15158,4294966681,4826,4294966198,4294967237,1250,4294966729,4294966729,4294966729
529170955,6468655,6476863,15570,2419,4294963559,1702,1598,489,10942,10452,6603,4294966317,415,1756,15329,4294966524,4918,4294966491,4294967187,1352,4294966719,4294966719,4294966719
529176952,6468726,6477515,15433,2691,4294963342,1699,1279,116,10697,10399,6547,4294966389,376,1912,15231,4294966377,5003,4294966512,4294967163,1416,4294966716,4294966716,4294966716
529182939,6468178,6476873,15259,2754,4294963012,1506,1062,4294967122,10644,10309,6519,4294966535,288,2028,15385,4294966291,5087,4294966810,4294967279,1598,4294966728,4294966728,4294966728
529188955,6467715,6476220,15148,2923,4294962759,1452,921,4294966768,10612,10275,6395,4294966632,303,2196,15536,4294966233,4973,4294967052,4294967254,1676,4294966720,4294966720,4294966720
529194964,6468522,6477051,14943,2996,4294962579,1134,777,4294966536,10529,10173,6417,4294966965,165,2283,15513,4294966220,4997,4294967197,4294967234,1817,4294966709,4294966709,4294966709
529200940,6468748,6477027,14714,2914,4294962577,793,616,4294966437,10660,10186,6365,4294967269,130,2314,15717,4294966261,5175,4294967254,4294967287,1944,4294966726,4294966726,4294966726
529206962,6468453,6476288,14537,3229,4294962626,469,405,4294966388,10755,10224,6380,264,165,2347,15929,4294966294,5115,156,6,2093,4294966711,4294966711,4294966711
529212965,6469352,6477463,14527,2873,4294962742,4294967213,234,4294966553,10766,10330,6537,584,158,2378,15970,4294966285,5194,226,27,2225,4294966712,4294966712,4294966712
529218953,6469299,6477458,14681,2868,4294962895,4294967187,53,4294966716,10820,10465,6454,950,109,2395,16167,4294966335,5264,395,114,2378,4294966718,4294966718,4294966718
529224965,6468042,6475853,14813,2827,4294963031,4294966780,4294967108,4294966988,10858,10543,6494,1242,135,2439,16177,4294966337,5217,657,178,2493,4294966708,4294966708,4294966708
529230966,6467946,6477095,15013,2872,4294963205,4294966904,4294967031,4294967241,10934,10517,6555,1477,225,2522,16192,4294966411,5062,852,312,2581,4294966707,4294966707,4294966707
529236957,6468520,6477885,15227,2581,4294963305,4294966915,4294967059,247,11025,10554,6557,1700,356,2565,16123,4294966442,4932,1067,407,2657,4294966712,4294966712,4294966712
529242956,6469836,6478505,15483,2455,4294963450,4294967045,4294967194,481,11194,10594,6678,1797,428,2626,16123,4294966477,4798,1274,484,2726,4294966717,4294966717,4294966717
529248954,6471552,6479237,15721,2189,4294963591,145,244,705,11258,10577,6673,1870,529,2707,16045,4294966550,4593,1446,537,2796,4294966714,4294966714,4294966714
529254954,6474665,6482961,16058,2257,4294963595,590,588,772,11268,10639,6678,1990,600,2733,16035,4294966598,4337,1581,569,2884,4294966714,4294966714,4294966714
529260945,6474757,6485271,16164,2294,4294963749,827,879,887,11391,10678,6663,2007,729,2766,16057,4294966590,4292,1803,572,3000,4294966722,4294966722,4294966722
529266958,6469433,6477565,16357,2209,4294963828,937,1003,1003,11473,10696,6591,1970,912,2768,16031,4294966568,4187,1895,497,3020,4294966717,4294966717,4294966717
529272942,6466066,6472846,16583,2111,4294963849,1233,1284,1084,11616,10646,6662,1811,1117,2759,15944,4294966537,4332,2020,441,3060,4294966724,4294966724,4294966724
529278950,6465044,6474321,16934,1935,4294963847,1498,1510,1155,11769,10501,6787,1690,1288,2745,15961,4294966464,4361,2136,383,3050,4294966717,4294966717,4294966717
529284968,6463974,6474389,17018,1840,4294963997,1865,1812,1200,11870,10444,6832,1611,1418,2735,15810,4294966470,4377,2102,295,3018,4294966704,4294966704,4294966704
529290961,6465018,6474556,16389,2015,4294964092,2155,1723,1347,11959,10380,6643,1500,1419,2710,15691,4294966416,4569,2069,222,3034,4294966712,4294966712,4294966712
529296952,6466513,6476145,17825,1472,4294963917,2429,1901,1402,11779,10366,6722,1184,1379,2760,15646,4294966303,4676,2045,134,3009,4294966717,4294966717,4294966717
529302944,6466526,6476005,17835,1697,4294963811,3019,2674,1264,11686,10327,6573,1034,1352,2827,15490,4294966276,4622,2095,64,2949,4294966725,4294966725,4294966725
529308957,6466707,6476166,17281,1880,4294963753,2956,2787,1313,11740,10212,6449,923,1521,2923,15351,4294966223,4628,2079,4294967277,2962,4294966713,4294966713,4294966713
529314946,6467152,6476679,16855,1812,4294963701,2836,2882,1371,11670,10097,6525,839,1629,2998,15259,4294966234,4446,2150,4294967243,3018,4294966722,4294966722,4294966722
529320958,6467673,6477263,16436,1791,4294963935,2740,2977,1393,11711,10029,6638,783,1656,3113,15129,4294966130,4286,2206,4294967167,3051,4294966717,4294966717,4294966717
529326942,6466897,6476338,16094,1604,4294964156,2576,3214,1295,11682,9898,6731,793,1698,3229,15117,4294966033,4233,2245,4294967167,3142,4294966727,4294966727,4294966727
529332964,6467195,6476548,15749,1513,4294964277,2606,3292,1128,11629,9842,6887,820,1731,3323,15054,4294965913,4334,2139,4294967184,3263,4294966712,4294966712,4294966712
529338962,6467343,6476669,15469,1516,4294964479,2470,3327,957,11626,9772,6933,803,1695,3474,15130,4294965787,4666,2129,4294967138,3388,4294966711,4294966711,4294966711
529344962,6467100,6476282,15233,1596,4294964539,2386,3115,753,11676,9688,6907,675,1559,3622,15154,4294965573,4860,2147,4294967008,3503,4294966713,4294966713,4294966713
529350949,6467028,6476069,15181,1629,4294964447,2247,2842,653,11718,9599,6875,677,1280,3789,15088,4294965392,4976,2260,4294966791,3579,4294966719,4294966719,4294966719
529356954,6467462,6476812,15030,1518,4294964107,2390,2567,560,11785,9482,6803,718,997,3947,15075,4294965306,4806,2439,4294966715,3623,4294966717,4294966717,4294966717
529362943,6467106,6476091,14938,1359,4294963590,2869,2233,482,11788,9342,6741,815,797,4102,15035,4294965297,4525,2501,4294966690,3777,4294966725,4294966725,4294966725
529368948,6467158,6476143,14893,1271,4294963177,3501,2036,403,11777,9188,6694,984,663,4227,15154,4294965184,4404,2367,4294966760,3984,4294966720,4294966720,4294966720
529374973,6467994,6477149,14772,1121,4294962974,3932,1853,323,11971,9149,6816,1258,543,4372,15340,4294964922,4292,2039,4294966834,4218,4294966705,4294966705,4294966705
529380934,6467998,6477031,14758,1166,4294963001,3748,1712,268,12164,9056,7052,1230,361,4387,15522,4294964552,4409,1781,4294966845,4402,4294966728,4294966728,4294966728
529386944,6467669,6476438,15326,785,4294963246,3375,1768,246,12413,8964,7296,1547,144,4402,15858,4294964155,4385,1659,4294966766,4516,4294966725,4294966725,4294966725
529392970,6468673,6477515,15621,623,4294963276,3105,1592,262,12664,8784,7514,1993,4294967117,4445,16137,4294963830,4400,1743,4294966626,4516,4294966705,4294966705,4294966705
529398953,6469442,6478647,15773,385,4294963470,2696,1020,430,12985,8578,7804,2449,4294966870,4445,16427,4294963674,4167,1865,4294966460,4507,4294966716,4294966716,4294966716
529404956,6468588,6477710,16076,4294967249,4294963671,2278,287,835,13399,8355,7853,2939,4294966554,4410,16733,4294963308,3882,1884,4294966342,4518,4294966714,4294966714,4294966714
529410934,6468656,6477490,16992,4294966703,4294963855,3219,738,970,13821,7830,7982,3210,4294966235,4412,17023,4294962757,3696,1764,4294966297,4555,4294966731,4294966731,4294966731
529416959,6469652,6478731,15762,4294967096,4294964246,2560,4294966742,1594,14258,7474,8041,3250,4294966090,4123,17257,4294962097,3571,1598,4294966340,4570,4294966712,4294966712,4294966712
529422964,6469407,6478705,17611,4294965556,4294964768,2675,4294966517,2074,14739,6906,8491,3529,4294965899,4017,17461,4294961464,3486,1325,4294966465,4501,4294966715,4294966715,4294966715
529428947,6468926,6478325,17680,4294965682,4294965093,3214,4294966408,2314,14846,6398,8773,3571,4294965544,3761,17446,4294960791,3468,1227,4294966636,4385,4294966724,4294966724,4294966724
529434961,6470022,6479695,17666,4294964758,4294965722,2105,4294965186,2881,14966,5871,8690,3685,4294965117,3471,17200,4294960162,3358,1135,4294966816,4114,4294966712,4294966712,4294966712
529440956,6470081,6480221,18859,4294963862,4294966127,2280,4294965070,3049,15375,5697,8119,3386,4294965113,3140,16891,4294959634,3349,1208,4294966993,3805,4294966716,4294966716,4294966716
529446972,6469580,6479442,18238,4294963623,4294966742,2091,4294964824,3228,15857,5222,7363,2631,4294965468,2994,16470,4294959147,3072,1195,4294966897,3371,4294966704,4294966704,4294966704
529452954,6470826,6481027,18668,4294962980,4294967127,1612,4294964639,3341,15976,4942,6765,1842,4294966027,2672,16036,4294959003,3033,1317,4294967105,3147,4294966717,4294966717,4294966717
529458948,6471345,6481434,18390,4294962577,210,1844,4294965139,3355,15717,4573,6060,835,4294966457,2873,15371,4294958423,2797,1395,4294967175,2887,4294966722,4294966722,4294966722
529464947,6471002,6481259,17895,4294962625,708,2432,4294965908,3288,15026,4245,5614,518,4294966366,2855,15222,4294958604,2531,1668,4294967137,2336,4294966719,4294966719,4294966719
529470944,6470976,6481290,17189,4294962898,1315,3133,4294966849,3142,15692,4366,4945,4294967166,4294966583,2992,14834,4294958251,2301,1564,4294966963,2044,4294966723,4294966723,4294966723
529476965,6471524,6482393,16512,4294963363,1894,4068,187,2976,15984,4168,4470,4294966968,4294966622,3067,14896,4294958295,1985,1466,4294966819,1919,4294966710,4294966710,4294966710
529482957,6471274,6482516,15936,4294964260,2115,5013,589,2807,15796,3709,4586,4294967059,4294966763,3020,14980,4294958321,1650,1285,4294966636,1931,4294966714,4294966714,4294966714
529488964,6470518,6481528,15480,4294964913,2138,5481,759,2767,15912,3874,4611,254,4294966712,2865,15371,4294958408,1470,1099,4294966400,2115,4294966711,4294966711,4294966711
529494953,6471044,6482497,15372,4294965674,2009,5706,878,2756,16388,3793,4670,518,4294966962,2926,15368,4294958576,1590,895,4294966194,2344,4294966716,4294966716,4294966716
529500980,6471016,6482537,15342,4294966198,1799,5298,840,2788,16664,3674,4867,909,4294967144,2926,15736,4294958661,1756,773,4294965914,2718,4294966700,4294966700,4294966700
529506961,6469957,6481239,15891,4294966528,1317,4817,905,2824,16493,3494,5234,1281,4294967279,2828,15842,4294958696,1999,668,4294965763,2954,4294966711,4294966711,4294966711
529512966,6470373,6481579,16362,4294966564,810,4360,1034,2652,16311,3429,5409,1724,124,2701,15864,4294958740,2368,662,4294965562,3160,4294966709,4294966709,4294966709
529518941,6470340,6481509,16802,4294966666,298,3797,1007,2337,16158,3365,5424,2266,332,2532,15915,4294958674,2563,876,4294965353,3285,4294966724,4294966724,4294966724
529524939,6468599,6479276,17458,4294966531,4294967077,3553,1235,1871,15851,3415,5576,2629,526,2437,15984,4294958689,2801,1185,4294965298,3287,4294966727,4294966727,4294966727
529530956,6468879,6479116,17969,4294966578,4294966607,3524,1389,1275,15711,3515,5498,2777,711,2369,15832,4294958695,2944,1558,4294965228,3173,4294966714,4294966714,4294966714
529536972,6469333,6479597,18156,4294966574,4294966302,3335,1530,778,15454,3673,5497,2741,804,2361,15802,4294958812,2817,1886,4294965238,2988,4294966709,4294966709,4294966709
529542952,6468888,6478925,18423,4294966573,4294965985,3346,1696,273,15300,4010,5568,2438,802,2421,15743,4294958861,2730,2047,4294965351,2797,4294966718,4294966718,4294966718
529548950,6468329,6477824,18371,4294966671,4294965924,3381,1610,4294967071,15194,4136,5698,2133,859,2513,15632,4294958937,2426,2302,4294965474,2546,4294966720,4294966720,4294966720
529554933,6469344,6478759,18229,4294966832,4294965715,3126,1501,4294966715,15122,4226,5701,1976,893,2589,15624,4294959154,2185,2415,4294965686,2354,4294966731,4294966731,4294966731
529560969,6469650,6478922,17933,4294966779,4294965693,2963,1619,4294966534,15025,4348,5567,1859,863,2631,15679,4294959201,2170,2371,4294965904,2132,4294966706,4294966706,4294966706
529566947,6468983,6477838,17392,4294966738,4294965890,2909,1649,4294966402,14803,4344,5411,1778,841,2616,15728,4294959321,2194,2236,4294966123,1962,4294966719,4294966719,4294966719
529572949,6469993,6478589,16727,4294966707,4294966099,2801,1669,4294966328,14752,4414,5238,1745,924,2580,15688,4294959436,2290,2097,4294966320,1767,4294966721,4294966721,4294966721
529578948,6470161,6478744,15882,4294966567,4294966533,2698,1486,4294966283,14597,4356,5367,1662,817,2515,15639,4294959532,2253,1955,4294966505,1598,4294966719,4294966719,4294966719
