t_us,ads_ch1,ads_ch2,ax0,ay0,az0,gx0,gy0,gz0,ax1,ay1,az1,gx1,gy1,gz1,ax2,ay2,az2,gx2,gy2,gz2,dt0_us,dt1_us,dt2_us
721618963,6467582,6494807,13439,5760,7208,4294967215,4294966621,7,11403,5534,11309,118,263,62,14389,4294964167,7967,402,389,268,4294966710,4294966710,4294966710
721624951,6466799,6494056,13391,5693,7241,4294967230,4294966689,4294967279,11465,5575,11266,133,271,107,14442,4294964185,8055,361,362,270,4294966719,4294966719,4294966719
721630947,6466433,6493558,13354,5730,7167,4294967290,4294966754,4294967262,11422,5519,11325,148,291,112,14381,4294964179,8062,342,291,230,4294966722,4294966722,4294966722
721636944,6466542,6493974,13342,5717,7143,4294967275,4294966830,4294967252,11431,5522,11287,180,286,113,14427,4294964173,8197,370,201,236,4294966723,4294966723,4294966723
721642945,6467376,6494703,13292,5687,7188,29,4294966906,4294967238,11356,5506,11307,202,302,117,14324,4294964108,8316,482,115,170,4294966722,4294966722,4294966722
721648943,6467090,6493925,13301,5697,7199,35,4294966917,4294967247,11337,5425,11311,217,321,108,14326,4294964152,8397,578,55,158,4294966723,4294966723,4294966723
721654952,6467084,6494261,13222,5667,7221,83,4294966896,4294967250,11329,5478,11333,191,377,66,14248,4294964179,8307,673,26,146,4294966719,4294966719,4294966719
721660962,6467657,6494809,13252,5665,7173,51,4294966845,4294967262,11304,5481,11300,156,410,77,14279,4294964192,8230,768,25,134,4294966711,4294966711,4294966711
721666951,6466743,6494164,13252,5641,7178,64,4294966780,4294967221,11286,5459,11265,127,464,71,14293,4294964205,8214,858,47,185,4294966717,4294966717,4294966717
721672963,6466446,6493567,13189,5654,7188,65,4294966691,4294967202,11244,5493,11343,142,468,56,14266,4294964284,8168,990,107,202,4294966710,4294966710,4294966710
721678978,6467407,6494620,13154,5563,7189,75,4294966635,4294967196,11287,5425,11354,141,440,49,14282,4294964250,8169,1085,109,201,4294966704,4294966704,4294966704
721684949,6467201,6494272,13202,5633,7118,80,4294966583,4294967190,11261,5487,11405,164,426,54,14292,4294964275,8043,1205,114,214,4294966723,4294966723,4294966723
721690951,6466318,6493079,13187,5640,7077,35,4294966564,4294967185,11230,5467,11388,134,398,72,14309,4294964312,8038,1346,87,231,4294966716,4294966716,4294966716
721696948,6466592,6493802,13212,5640,7127,47,4294966564,4294967190,11235,5525,11335,163,384,66,14385,4294964395,8090,1406,27,259,4294966720,4294966720,4294966720
721702961,6466587,6493430,13218,5666,7068,48,4294966545,4294967188,11221,5444,11366,163,360,92,14359,4294964389,8233,1418,4294967234,321,4294966714,4294966714,4294966714
721708934,6465892,6492747,13220,5733,7105,18,4294966595,4294967203,11223,5516,11368,202,359,71,14417,4294964395,8252,1418,4294967140,348,4294966731,4294966731,4294966731
721714960,6465788,6492511,13287,5776,7125,65,4294966617,4294967228,11170,5546,11347,215,355,90,14428,4294964404,8014,1335,4294967106,360,4294966712,4294966712,4294966712
721720963,6466780,6493153,13257,5766,7134,78,4294966643,4294967253,11197,5530,11318,262,378,83,14449,4294964378,7953,1286,4294967101,376,4294966711,4294966711,4294966711
721726960,6466382,6492807,13319,5857,7052,78,4294966676,4294967278,11188,5568,11290,285,405,78,14346,4294964384,8021,1244,4294967020,407,4294966716,4294966716,4294966716
721732946,6466398,6492741,13307,5877,7002,95,4294966733,4294967294,11181,5581,11322,360,396,93,14315,4294964346,7973,1245,4294966945,375,4294966725,4294966725,4294966725
721738963,6466614,6493175,13380,5897,7063,92,4294966757,6,11174,5600,11387,366,396,43,14355,4294964355,8074,1254,4294966916,363,4294966711,4294966711,4294966711
721744942,6466213,6492837,13424,5874,7047,67,4294966815,43,11221,5585,11325,411,351,24,14369,4294964349,7992,1242,4294966888,278,4294966723,4294966723,4294966723
721750959,6466239,6492570,13415,5847,7155,51,4294966843,52,11236,5635,11405,497,266,0,14330,4294964379,8135,1152,4294966882,251,4294966712,4294966712,4294966712
721756953,6467221,6493396,13432,5830,7000,36,4294966860,57,11246,5592,11332,438,300,4294967290,14226,4294964343,8077,1101,4294966871,170,4294966721,4294966721,4294966721
721762957,6467140,6493388,13472,5812,7023,4294967264,4294966865,83,11268,5591,11357,440,282,4294967244,14251,4294964323,8124,1114,4294966849,116,4294966716,4294966716,4294966716
721768969,6465692,6491815,13475,5846,7086,4294967239,4294966855,62,11287,5582,11417,442,224,4294967194,14270,4294964285,8204,1240,4294966768,61,4294966709,4294966709,4294966709
721774963,6465987,6492246,13478,5796,7067,4294967200,4294966860,74,11287,5577,11347,363,282,4294967182,14342,4294964328,8263,1394,4294966630,4294967293,4294966714,4294966714,4294966714
721780952,6466259,6492852,13460,5763,7015,4294967184,4294966833,62,11359,5698,11346,389,296,4294967217,14443,4294964341,8131,1426,4294966559,4294967234,4294966718,4294966718,4294966718
721786959,6465927,6492910,13460,5751,6959,4294967208,4294966840,47,11299,5654,11320,332,318,4294967169,14464,4294964460,7992,1304,4294966533,4294967238,4294966715,4294966715,4294966715
721792948,6465708,6492999,13425,5709,6989,4294967242,4294966856,84,11329,5710,11249,310,375,4294967201,14525,4294964486,7884,1252,4294966584,4294967229,4294966721,4294966721,4294966721
721798964,6467827,6495453,13378,5730,6956,4294967279,4294966883,51,11325,5787,11185,344,430,4294967243,14531,4294964516,7725,1255,4294966575,4294967209,4294966708,4294966708,4294966708
721804973,6469610,6497253,13372,5759,6914,2,4294966932,43,11370,5740,11199,318,478,4294967237,14544,4294964492,7807,1258,4294966590,4294967214,4294966704,4294966704,4294966704
721810951,6471364,6499559,13419,5709,6890,44,4294966977,67,11387,5709,11258,327,509,4294967225,14504,4294964495,7888,1208,4294966570,4294967277,4294966719,4294966719,4294966719
721816958,6472426,6502379,13388,5651,6850,46,4294967012,43,11329,5705,11284,324,524,4294967228,14452,4294964454,8036,1218,4294966556,4294967253,4294966716,4294966716,4294966716
721822947,6468742,6496357,13335,5633,7005,88,4294967033,42,11327,5608,11212,298,534,4294967246,14393,4294964317,8228,1278,4294966515,4294967251,4294966723,4294966723,4294966723
721828965,6464262,6488520,13228,5569,7064,96,4294967040,31,11340,5691,11278,264,537,4294967244,14338,4294964329,8354,1337,4294966461,4294967236,4294966713,4294966713,4294966713
721834958,6463046,6488419,13272,5560,6929,100,4294966991,18,11366,5610,11278,237,488,4294967254,14345,4294964362,8350,1393,4294966421,4294967249,4294966713,4294966713,4294966713
721840941,6463720,6490709,13280,5540,6948,96,4294966937,20,11341,5543,11398,243,455,8,14273,4294964368,8334,1438,4294966401,4294967272,4294966723,4294966723,4294966723
721846936,6464149,6490503,13366,5570,6891,93,4294966891,4294967286,11256,5561,11417,361,436,30,14271,4294964425,8280,1557,4294966376,4294967287,4294966730,4294966730,4294966730
721852956,6465472,6491835,13296,5507,6890,86,4294966852,4294967264,11230,5608,11253,381,363,21,14256,4294964528,8215,1676,4294966323,32,4294966719,4294966719,4294966719
721858974,6466442,6493023,13288,5482,6952,63,4294966897,4294967226,11180,5589,11325,327,261,54,14206,4294964612,8061,1819,4294966335,87,4294966704,4294966704,4294966704
721864956,6466657,6493660,13410,5467,6881,62,4294966916,4294967174,11093,5570,11471,338,208,93,14273,4294964721,7836,1854,4294966408,216,4294966713,4294966713,4294966713
721870962,6466039,6492645,13318,5581,6976,53,4294966949,4294967162,11081,5587,11379,423,288,180,14319,4294964761,7741,1806,4294966432,337,4294966713,4294966713,4294966713
721876965,6466598,6493626,13302,5622,7101,70,4294967019,4294967124,11019,5593,11165,478,295,216,14451,4294964863,7861,1715,4294966460,425,4294966709,4294966709,4294966709
721882962,6467113,6493919,13292,5708,7117,92,4294967098,4294967114,11026,5527,11166,475,339,216,14451,4294964854,7701,1654,4294966507,591,4294966711,4294966711,4294966711
721888933,6466964,6493355,13161,5731,7195,120,4294967156,4294967106,11020,5381,11356,543,371,243,14395,4294964877,7562,1627,4294966552,708,4294966731,4294966731,4294966731
721894954,6466585,6493850,13094,5759,7305,137,4294967185,4294967102,11024,5543,11430,587,358,277,14418,4294964752,7578,1522,4294966597,809,4294966716,4294966716,4294966716
721900938,6467813,6494768,13119,5871,7223,110,4294967216,4294967141,11071,5589,11536,598,283,284,14336,4294964670,7438,1567,4294966655,915,4294966726,4294966726,4294966726
721906956,6467136,6493757,13228,5984,7031,170,4294967170,4294967228,10989,5493,11584,663,203,296,14226,4294964699,7627,1647,4294966785,973,4294966716,4294966716,4294966716
721912958,6467017,6493887,13323,6033,6861,248,4294967169,15,11025,5440,11625,670,168,223,14262,4294964733,7711,1501,4294966934,1035,4294966713,4294966713,4294966713
721918949,6468116,6494704,13396,6048,6697,296,4294967162,66,10882,5449,11434,554,84,136,14158,4294964814,7675,1318,4294967109,1068,4294966721,4294966721,4294966721
721924955,6467396,6494138,13451,6047,6548,316,4294967260,97,10964,5548,11212,407,14,42,14125,4294964947,7436,985,102,1191,4294966717,4294966717,4294966717
721930960,6466592,6493882,13428,5995,6514,320,158,94,10875,5540,10982,315,85,4294967274,14186,4294965067,7302,591,367,1284,4294966712,4294966712,4294966712
721936962,6467259,6494426,13351,5942,6490,246,395,63,11006,5516,10991,334,175,4294967199,14294,4294965011,7365,147,542,1353,4294966712,4294966712,4294966712
721942951,6468297,6495397,13331,5877,6592,148,638,22,11046,5512,10978,378,225,4294967068,14394,4294964905,7336,4294967127,575,1315,4294966719,4294966719,4294966719
721948974,6467727,6495107,13257,5852,6809,71,787,4294967260,10973,5559,11024,448,242,4294966975,14371,4294964838,7401,4294966998,598,1223,4294966704,4294966704,4294966704
721954946,6468162,6495095,13217,5848,6987,4294967290,807,4294967233,10990,5578,11210,520,239,4294966896,14353,4294964782,7519,4294966859,601,1176,4294966719,4294966719,4294966719
721960961,6468776,6496014,13229,5882,6928,4294967293,764,4294967217,11006,5659,11353,593,134,4294966810,14326,4294964744,7536,4294966666,577,1064,4294966711,4294966711,4294966711
721966948,6467878,6495767,13186,5944,7054,28,738,4294967232,11009,5822,11346,675,34,4294966779,14298,4294964770,7520,4294966402,552,945,4294966720,4294966720,4294966720
721972968,6467618,6495488,13173,5948,7043,92,687,4294967265,11064,5895,11368,756,4294967295,4294966792,14324,4294964634,7559,4294966309,618,867,4294966708,4294966708,4294966708
721978950,6468930,6496508,13281,6005,7096,155,607,21,10979,5881,11372,776,4294967279,4294966815,14330,4294964645,7438,4294966192,652,840,4294966721,4294966721,4294966721
721984948,6468767,6496498,13295,6055,7188,172,512,37,11051,5935,11173,753,25,4294966796,14389,4294964751,7302,4294965932,810,858,4294966721,4294966721,4294966721
721990947,6468563,6496083,13359,6007,7309,150,443,47,11116,5939,11103,691,129,4294966811,14422,4294964774,7244,4294965588,967,880,4294966724,4294966724,4294966724
721996936,6469385,6497072,13365,5998,7321,73,361,53,11126,5909,11149,612,242,4294966755,14511,4294964727,7078,4294965322,1172,931,4294966729,4294966729,4294966729
722002944,6469059,6496771,13460,5914,7350,4294967253,317,24,11183,5865,11148,553,310,4294966729,14568,4294964509,7197,4294965160,1297,937,4294966724,4294966724,4294966724
722008942,6468593,6496326,13488,5884,7286,4294967116,218,23,11240,5799,11144,349,413,4294966674,14542,4294964272,7573,4294965279,1253,864,4294966724,4294966724,4294966724
722014959,6468541,6496293,13523,5802,7354,4294967014,117,4294967290,11309,5808,11058,146,429,4294966678,14617,4294964033,7763,4294965552,1129,753,4294966713,4294966713,4294966713
722020952,6469205,6497248,13558,5681,7323,4294966891,16,4294967266,11422,5724,11028,4294967215,464,4294966623,14600,4294963920,8007,4294965787,1007,585,4294966716,4294966716,4294966716
722026961,6468217,6496213,13586,5593,7065,4294966886,4294967280,4294967233,11559,5735,11045,4294966997,485,4294966623,14513,4294963881,8116,4294965920,900,436,4294966712,4294966712,4294966712
722034963,6467908,6495315,13589,5495,7014,4294966933,61,4294967243,11575,5631,11079,4294966922,452,4294966622,14458,4294963911,8024,4294966120,867,284,4294966710,4294966710,4294966710
722040943,6468492,6496517,13563,5485,6951,4294967004,183,4294967252,11568,5673,11221,4294966946,438,4294966643,14440,4294964082,7979,4294966077,931,230,4294966726,4294966726,4294966726
722046958,6467608,6495167,13531,5487,6862,4294967050,352,4294967253,11573,5716,11303,4294967027,372,4294966668,14491,4294964130,7884,4294965907,1077,229,4294966713,4294966713,4294966713
722052944,6468369,6495372,13557,5464,6941,4294967070,508,4294967225,11587,5754,11255,4294967126,369,4294966707,14464,4294964222,7717,4294965611,1307,373,4294966722,4294966722,4294966722
722058947,6468660,6495739,13459,5460,7077,4294967073,651,4294967206,11516,5761,11243,4294967239,376,4294966761,14368,4294964379,7917,4294965474,1523,562,4294966721,4294966721,4294966721
722064948,6468151,6495508,13390,5494,7159,4294967012,741,4294967177,11466,5743,11256,4294967294,443,4294966766,14385,4294964191,7636,4294965272,1715,800,4294966722,4294966722,4294966722
722070948,6466941,6494241,13394,5450,7315,4294966945,742,4294967114,11514,5697,11167,0,516,4294966816,14393,4294964235,7394,4294965249,1993,991,4294966720,4294966720,4294966720
722076953,6468060,6495225,13304,5523,7470,4294966890,661,4294967104,11375,5510,11292,223,550,4294966808,14337,4294964183,7553,4294965120,2217,1233,4294966716,4294966716,4294966716
722082957,6468601,6495607,13239,5475,7440,4294966877,556,4294967057,11277,5511,11306,324,636,4294966790,14375,4294964323,7433,4294964930,2357,1415,4294966713,4294966713,4294966713
722088949,6467423,6493897,13227,5541,7460,4294966892,442,4294967016,11241,5471,11249,451,688,4294966757,14376,4294964189,7674,4294964860,2425,1588,4294966720,4294966720,4294966720
722094943,6467049,6493542,13145,5553,7410,4294966974,315,4294967028,11210,5513,11150,461,821,4294966801,14501,4294963913,7909,4294965015,2278,1641,4294966723,4294966723,4294966723
722100969,6466988,6494167,13146,5542,7413,4294967073,264,4294967022,11323,5625,11019,481,896,4294966771,14508,4294963709,8215,4294965267,2031,1596,4294966710,4294966710,4294966710
722106952,6466796,6493777,13151,5587,7319,4294967205,276,4294967080,11323,5579,11048,393,953,4294966784,14540,4294963494,8506,4294965691,1672,1472,4294966717,4294966717,4294966717
722112949,6467552,6493756,13131,5570,7327,19,328,4294967133,11349,5529,11032,410,928,4294966785,14611,4294963409,8715,4294966070,1304,1285,4294966720,4294966720,4294966720
722118954,6467851,6494272,13140,5589,7287,55,416,4294967195,11400,5554,11296,639,807,4294966826,14463,4294963553,8612,4294966200,1068,1254,4294966718,4294966718,4294966718
722124937,6467107,6493180,13096,5636,7298,111,465,4294967235,11377,5401,11645,698,680,4294966797,14247,4294963591,8270,4294966289,979,1238,4294966726,4294966726,4294966726
722130939,6466553,6492796,13049,5701,7333,133,457,4294967258,11325,5293,11830,1045,541,4294966826,14237,4294963628,8163,4294966350,1025,1278,4294966728,4294966728,4294966728
722136975,6467278,6493561,13037,5650,7323,93,396,24,11245,5283,11701,1369,518,4294966793,14169,4294963738,8081,4294966426,1094,1289,4294966700,4294966700,4294966700
722142938,6467971,6494555,13088,5725,7271,80,251,42,11241,5406,11468,1558,564,4294966813,14100,4294963765,7930,4294966260,1328,1409,4294966728,4294966728,4294966728
722148955,6467014,6493619,13095,5722,7399,42,112,28,11102,5471,11296,1506,644,4294966811,14115,4294963787,7627,4294966164,1630,1441,4294966715,4294966715,4294966715
722154957,6467022,6494287,13079,5694,7374,4294967292,23,4294967289,10991,5404,11170,1387,805,4294966781,14138,4294963829,7344,4294966012,2005,1586,4294966718,4294966718,4294966718
722160965,6468129,6495188,13091,5675,7420,4294967237,4294967251,4294967260,10971,5449,10993,1285,958,4294966741,14161,4294963806,7453,4294965809,2271,1626,4294966709,4294966709,4294966709
722166966,6467604,6494057,13046,5684,7375,4294967139,4294967229,4294967226,10998,5659,10935,1184,1135,4294966841,14200,4294963621,7837,4294965760,2219,1590,4294966709,4294966709,4294966709
722172953,6466939,6493569,13064,5597,7404,4294967117,4294967177,4294967213,10841,5504,10906,1273,1246,4294966758,14596,4294963115,8193,4294966225,1929,1019,4294966715,4294966715,4294966715
722178960,6468021,6494951,13029,5613,7414,4294967117,4294967127,4294967192,10911,5540,11145,1389,1278,4294966689,14285,4294963394,7954,4294965678,2014,1202,4294966712,4294966712,4294966712
722184965,6467178,6494035,13138,5674,7335,4294967147,4294967086,4294967191,11114,5509,11208,1450,1175,4294966605,14017,4294963289,8295,4294965871,1774,968,4294966711,4294966711,4294966711
722190948,6466846,6493442,13204,5592,7213,4294967196,4294967092,4294967195,11186,5644,11107,1582,1218,4294966565,14137,4294963178,8391,4294966148,1413,783,4294966721,4294966721,4294966721
722196952,6468197,6494769,13246,5653,7114,4294967247,4294967159,4294967183,11169,5607,11025,1698,1251,4294966540,14224,4294963365,8407,4294966249,1343,688,4294966716,4294966716,4294966716
722202942,6467759,6494153,13265,5691,7039,4294967283,4294967283,4294967169,10995,5606,10838,1901,1420,4294966422,14126,4294963474,8426,4294965940,1384,551,4294966723,4294966723,4294966723
722208947,6466855,6493127,13300,5692,7071,4294967266,130,4294967157,11189,5776,10939,2008,1518,4294966411,13922,4294963533,8449,4294965959,1225,520,4294966719,4294966719,4294966719
722214942,6466889,6493375,13349,5716,7218,4294967223,226,4294967127,11057,5852,11016,2099,1506,4294966324,13937,4294963535,8344,4294965766,1098,477,4294966726,4294966726,4294966726
722220951,6467262,6494476,13303,5709,7370,4294967152,267,4294967093,11094,5868,11208,2159,1434,4294966219,14067,4294963484,8153,4294965592,1104,355,4294966717,4294966717,4294966717
722226944,6466377,6493680,13315,5688,7397,4294967058,259,4294967072,11021,5841,11304,2104,1374,4294966235,14073,4294963424,8187,4294965565,1113,231,4294966722,4294966722,4294966722
722232946,6466507,6493389,13312,5722,7546,4294967014,220,4294967037,11045,6026,11460,2266,1315,4294966234,14172,4294963402,8033,4294965495,1100,126,4294966721,4294966721,4294966721
722238953,6467377,6494462,13399,5762,7529,4294966992,186,4294967058,10881,6060,11408,2269,1253,4294966289,13901,4294963310,8211,4294965676,984,31,4294966718,4294966718,4294966718
722244947,6467813,6494352,13305,5705,7462,4294967061,177,4294967092,10855,5985,11338,2117,1319,4294966213,14044,4294963386,8009,4294965835,858,4294967269,4294966724,4294966724,4294966724
722250943,6467180,6493311,13331,5705,7348,4294967134,204,4294967145,10891,6031,11268,1943,1461,4294966249,14180,4294963272,7867,4294965862,1016,4294967142,4294966725,4294966725,4294966725
722256945,6467250,6493859,13306,5741,7371,4294967246,254,4294967177,10911,6186,11160,1767,1596,4294966257,13887,4294963350,7812,4294965891,1219,4294967241,4294966722,4294966722,4294966722
722262956,6466852,6494209,13258,5760,7334,7,271,4294967165,10891,6038,11311,1886,1519,4294966319,13904,4294963399,7698,4294965876,1455,4294967269,4294966716,4294966716,4294966716
722268946,6466486,6493119,13260,5717,7405,4294967277,366,4294967129,11445,6956,11199,1854,1448,4294966352,13803,4294963476,7870,4294965721,1806,108,4294966722,4294966722,4294966722
722274965,6467409,6493708,13201,5722,7373,4294967240,417,4294967119,10830,6055,11282,1520,1477,4294966319,13994,4294963496,7850,4294965700,2011,238,4294966710,4294966710,4294966710
722280956,6467544,6494053,13204,5790,7403,4294967059,368,4294967070,10907,6092,11397,1902,1512,4294966444,13887,4294963418,8062,4294965521,2169,344,4294966719,4294966719,4294966719
722286964,6466874,6493713,13088,5763,7451,4294966965,363,4294967060,10965,6314,11285,2281,1368,4294966241,13828,4294963285,8305,4294965579,1941,408,4294966710,4294966710,4294966710
722292944,6465877,6493168,13148,5732,7366,4294966834,274,4294967061,11045,6579,11220,2134,1581,4294966380,14024,4294963133,8394,4294965533,1748,377,4294966724,4294966724,4294966724
722298952,6467247,6494974,13200,5720,7315,4294966910,115,4294967027,10959,6578,11160,2019,1539,4294966305,14403,4294962988,8602,4294965437,1570,185,4294966721,4294966721,4294966721
722304954,6467043,6494417,13174,5776,7269,4294966968,53,4294967055,11139,6897,11055,1738,1828,4294966568,14282,4294962833,8692,4294965512,1262,123,4294966719,4294966719,4294966719
722310958,6466242,6493455,13165,5664,7292,4294966995,4294967248,4294967073,10622,6050,11197,1740,2008,4294966601,14173,4294962726,8909,4294965825,1034,4294967233,4294966715,4294966715,4294966715
722318944,6466919,6494088,13225,5633,7364,4294967084,4294967210,4294966983,10838,6359,11309,2104,2007,4294966479,13817,4294962951,9062,4294966519,652,4294967129,4294966725,4294966725,4294966725
722326959,6466467,6494087,13215,5655,7394,4294967134,4294967200,4294967009,10699,6445,11400,1781,2059,4294966515,13814,4294963143,8864,4294967003,475,4294967113,4294966714,4294966714,4294966714
722334947,6466598,6493743,13241,5751,7284,4294967136,4294967244,4294966954,10889,6617,11400,2067,1861,4294966351,13740,4294963388,8494,4294966909,798,4294967230,4294966719,4294966719,4294966719
722342945,6467283,6494999,13294,5751,7272,4294967056,59,4294966885,10959,6744,11273,1660,1890,4294966459,13507,4294963440,8410,4294967009,1069,149,4294966722,4294966722,4294966722
722348948,6467123,6494551,13168,5839,7427,4294967035,121,4294966818,10915,6778,11226,2053,1754,4294966624,13657,4294963163,8164,4294966941,1177,312,4294966723,4294966723,4294966723
722354954,6466606,6493778,13224,5682,7378,4294966946,222,4294966749,10993,7095,11110,2306,1703,4294966689,13900,4294963147,8063,4294966698,1518,381,4294966718,4294966718,4294966718
722360932,6466953,6494398,13097,5696,7450,4294966897,302,4294966726,10974,7204,11288,2164,1745,4294966970,13891,4294963139,8167,4294966562,1414,451,4294966732,4294966732,4294966732
722366948,6465799,6492767,13083,5614,7472,4294966837,283,4294966710,11001,7174,11415,2400,1665,4294967173,13877,4294963079,8220,4294966667,1253,543,4294966720,4294966720,4294966720
722372937,6465785,6492513,13133,5646,7455,4294966868,265,4294966726,10910,7106,11503,2600,1454,34,14112,4294963003,8297,4294966674,1002,567,4294966728,4294966728,4294966728
722378950,6467132,6493896,13111,5627,7463,4294966906,179,4294966769,10909,7105,11562,2433,1312,175,14402,4294963019,8405,4294966486,879,619,4294966722,4294966722,4294966722
722384955,6466559,6493148,13141,5515,7516,4294966958,51,4294966751,11117,7109,11354,2289,1235,232,14328,4294962912,8531,4294966537,781,670,4294966719,4294966719,4294966719
722390948,6466137,6492689,13132,5620,7476,4294967005,4294967196,4294966772,11229,7134,11245,2118,1331,417,14302,4294962824,8626,4294966771,631,666,4294966718,4294966718,4294966718
722396956,6466051,6493437,13174,5586,7483,4294967005,4294967024,4294966848,11179,6875,11225,2215,1282,512,14107,4294962901,8524,4294967115,559,776,4294966716,4294966716,4294966716
722402957,6466311,6492859,13212,5537,7399,4294967024,4294966893,4294966862,11184,6851,11321,2179,1172,536,13957,4294963077,8418,191,497,833,4294966715,4294966715,4294966715
722408967,6466285,6492438,13230,5566,7390,4294967052,4294966811,4294966830,11163,6822,11341,1994,1138,568,13945,4294963199,8454,463,523,990,4294966710,4294966710,4294966710
722414972,6466075,6492550,13269,5619,7460,4294967021,4294966787,4294966791,11141,6888,11283,1953,1172,639,13817,4294963416,8339,529,606,1069,4294966706,4294966706,4294966706
722420951,6466556,6494063,13396,5550,7215,4294966937,4294966751,4294966704,11035,7069,11317,1941,1222,711,13958,4294963298,8110,478,691,1158,4294966721,4294966721,4294966721
722426949,6465957,6493310,13248,5521,7319,4294966881,4294966760,4294966586,10827,6965,11458,1717,1282,857,13895,4294963377,8098,501,823,1190,4294966720,4294966720,4294966720
722432935,6466670,6494031,13452,5549,7176,4294966992,4294966711,4294966513,10558,7091,11472,1687,1184,842,14019,4294963328,7999,443,811,1231,4294966729,4294966729,4294966729
722438949,6470068,6497033,13396,5616,7346,4294966957,4294966999,4294966457,10739,7097,11534,1453,1379,951,14030,4294963333,8230,473,747,1130,4294966720,4294966720,4294966720
722444961,6472113,6500572,13531,5524,7248,4294967067,4294966886,4294966460,10233,7081,11571,1463,1325,984,14202,4294963183,8026,413,661,1133,4294966714,4294966714,4294966714
722450963,6468664,6497187,13332,5686,7390,34,4294967081,4294966491,10291,7237,11516,1311,1448,1008,14633,4294963015,8121,344,614,996,4294966709,4294966709,4294966709
722456965,6465964,6491381,13167,5788,7430,186,4294967223,4294966570,10388,7320,11325,1275,1631,1056,14291,4294963143,8400,469,716,918,4294966710,4294966710,4294966710
722462944,6461878,6486562,13217,5798,7487,288,18,4294966647,9953,6982,11371,1341,1903,1139,14251,4294963089,8601,476,409,771,4294966722,4294966722,4294966722
722468949,6460958,6487511,13272,5902,7402,422,101,4294966742,10237,7153,11266,1466,2008,1020,14256,4294963039,8588,598,237,668,4294966718,4294966718,4294966718
722474951,6462924,6489414,13266,5975,7410,550,107,4294966859,10186,6828,11313,1411,2188,980,14198,4294963097,8565,690,148,625,4294966720,4294966720,4294966720
722480943,6464220,6491018,13203,6038,7395,586,103,4294966976,10250,6827,11272,1619,2307,853,14181,4294963198,8630,851,63,551,4294966721,4294966721,4294966721
722486970,6465586,6491508,13186,6137,7378,588,139,4294967054,10344,6958,11053,1678,2383,743,14116,4294963254,8584,1010,92,626,4294966709,4294966709,4294966709
722492963,6465691,6491866,13268,6158,7262,587,221,4294967075,10468,7131,11207,1495,2573,681,13951,4294963176,8650,1049,110,622,4294966710,4294966710,4294966710
722498958,6466595,6493419,13296,6108,7297,539,235,4294967081,10032,6782,11599,1378,2647,644,13959,4294963264,8385,1104,133,680,4294966716,4294966716,4294966716
722504946,6466425,6493192,13187,6059,7311,521,277,4294967046,10095,6903,11646,1486,2502,449,13947,4294963291,8436,869,216,698,4294966723,4294966723,4294966723
722510957,6465615,6492096,13092,6021,7428,518,283,4294966968,10156,6826,11839,1179,2361,303,13880,4294963168,8518,736,144,673,4294966712,4294966712,4294966712
722516952,6466632,6493144,13038,6082,7598,463,277,4294966955,10183,6955,11966,1001,2130,318,13901,4294963040,8548,610,210,684,4294966719,4294966719,4294966719
722522943,6467008,6493537,12874,6010,7629,385,323,4294966904,10051,6704,12174,979,1841,224,13554,4294963056,8674,654,147,552,4294966723,4294966723,4294966723
722528958,6465887,6492402,12781,6059,7717,320,360,4294966861,10013,6659,12339,748,1647,171,13805,4294962961,8411,791,4,401,4294966713,4294966713,4294966713
722534954,6466334,6493135,12784,6108,7605,288,382,4294966854,9866,6533,12457,713,1452,224,13939,4294963034,8483,941,60,364,4294966720,4294966720,4294966720
722540942,6467178,6493976,12800,6234,7381,314,353,4294966892,9897,6630,12320,572,1316,210,13692,4294963244,8510,1195,228,424,4294966726,4294966726,4294966726
722546963,6466439,6493043,13011,6089,7240,402,336,4294966947,9939,6656,12221,262,1263,274,13818,4294963362,8373,1222,169,346,4294966713,4294966713,4294966713
722552955,6466907,6493383,13134,6092,7012,871,325,4294966923,9782,6468,12068,77,1156,239,13686,4294963410,8304,1197,260,376,4294966719,4294966719,4294966719
722558950,6467182,6493636,13005,6191,6870,800,421,4294966863,9841,6458,11950,22,993,191,13535,4294963468,8439,1120,217,370,4294966719,4294966719,4294966719
722564954,6467449,6494034,13026,6273,6917,768,520,4294966833,9964,6513,11737,4294967165,994,70,13625,4294963439,8451,875,86,324,4294966715,4294966715,4294966715
722570954,6467079,6493598,13041,6161,6923,540,686,4294966827,10097,6452,11732,4294967229,1026,4294967208,13585,4294963365,8594,708,4294967273,296,4294966718,4294966718,4294966718
722576944,6467846,6495090,13521,5917,6132,1024,45,4294966919,10108,6518,11790,4294967176,960,4294967058,13771,4294963274,8672,540,4294967069,222,4294966724,4294966724,4294966724
722582949,6468338,6495263,13882,6146,5779,2022,4294965397,4294966902,9988,6344,11912,4294967199,811,4294966904,13733,4294963234,8666,427,4294966889,162,4294966724,4294966724,4294966724
722588949,6467373,6494408,13575,6449,5692,2515,4294964139,4294966806,10014,6457,12001,131,751,4294966824,13759,4294963227,8585,294,4294966669,12,4294966723,4294966723,4294966723
722594963,6468744,6495750,13500,6559,6016,2310,4294962503,4294966558,9895,6471,12121,365,759,4294966761,13854,4294963157,8434,74,4294966608,4294967258,4294966713,4294966713,4294966713
722600958,6469843,6496723,13132,6657,7213,1619,4294963176,4294966300,9950,6654,12178,649,802,4294966729,13938,4294963224,8324,4294967272,4294966699,4294967214,4294966712,4294966712,4294966712
722608965,6469034,6495815,13215,6888,7618,1002,4294963394,4294966044,10002,6728,12111,566,805,4294966674,13950,4294963251,8279,4294967196,4294966901,4294967145,4294966709,4294966709,4294966709
722616948,6470196,6497297,12758,7178,7934,4294966977,4294963182,4294965827,10076,6952,12050,391,767,4294966656,14091,4294963336,8385,4294967245,4294967237,4294967140,4294966720,4294966720,4294966720
722624948,6469862,6496753,12885,6750,7549,4294965488,4294963283,4294966169,10070,6992,12123,4294967271,765,4294966665,14018,4294963300,8419,4294967179,293,4294967092,4294966719,4294966719,4294966719
722632955,6469753,6496674,12946,6529,7921,4294965396,4294963422,4294966378,10107,7127,11994,4294966989,677,4294966608,13849,4294963207,8372,4294967152,230,4294966999,4294966716,4294966716,4294966716
722640947,6470142,6497866,12971,6766,7443,4294965462,4294963644,4294966337,10058,7069,12117,4294966659,677,4294966611,13868,4294963187,8474,4294967151,388,4294966938,4294966722,4294966722,4294966722
722648949,6469268,6497451,12924,6546,7221,4294965322,4294964555,4294966245,10067,7067,12248,4294966665,574,4294966582,13893,4294963189,8586,4294966945,526,4294966825,4294966717,4294966717,4294966717
722656946,6469034,6497564,12831,6358,7441,4294965605,4294965626,4294966246,9971,7030,12142,4294966482,409,4294966598,13839,4294963250,8547,4294966763,605,4294966772,4294966722,4294966722,4294966722
722664961,6470593,6498321,12756,6187,7506,4294965704,4294966644,4294966128,9977,7016,12162,4294966439,201,4294966597,13804,4294963262,8653,4294966612,581,4294966691,4294966715,4294966715,4294966715
722672968,6468861,6496481,12940,6166,7608,4294965754,214,4294966309,9958,6878,12089,4294966373,4294967243,4294966563,13766,4294963314,8629,4294966593,540,4294966646,4294966708,4294966708,4294966708
722680949,6470131,6497206,12936,6108,7576,4294965617,355,4294966495,9922,6820,12141,4294966436,4294966916,4294966613,13614,4294963332,8638,4294966592,413,4294966642,4294966718,4294966718,4294966718
722688965,6467768,6495961,12859,5932,7616,4294965774,207,4294966633,10028,6776,12098,4294966483,4294966640,4294966599,13590,4294963368,8590,4294966583,247,4294966619,4294966709,4294966709,4294966709
722696974,6467283,6495897,13025,5960,7474,4294966627,4294966712,4294966802,10023,6733,11981,4294966394,4294966532,4294966602,13637,4294963314,8431,4294966515,192,4294966648,4294966705,4294966705,4294966705
722704946,6467949,6495821,12967,5343,7381,121,4294966380,4294966868,10132,6790,11649,4294966436,4294966558,4294966631,13714,4294963236,8434,4294966428,202,4294966710,4294966724,4294966724,4294966724
722712948,6467623,6494786,12908,6491,7144,4294966908,4294966088,4294966646,10212,6783,11509,4294966465,4294966709,4294966656,13782,4294963292,8397,4294966380,175,4294966737,4294966723,4294966723,4294966723
722720963,6468660,6496183,13192,6304,6824,4294966310,4294966281,4294966612,10216,6825,11660,4294966694,4294966901,4294966689,13913,4294963233,8441,4294966422,195,4294966800,4294966713,4294966713,4294966713
722728946,6466527,6493798,13050,5920,6695,4294966267,4294966543,4294966676,10276,6872,11790,4294966831,4294967066,4294966807,13820,4294963193,8613,4294966578,205,4294966870,4294966725,4294966725,4294966725
722736964,6467656,6495212,13366,6213,6655,4294966309,4294966808,4294966657,10332,6966,11804,4294966923,4294967148,4294966886,13848,4294963144,8564,4294966719,238,4294966962,4294966710,4294966710,4294966710
722744946,6466662,6494130,13528,6422,6597,4294966522,17,4294966880,10453,6980,11485,4294966876,4294967225,4294966952,13860,4294963072,8575,4294966836,268,4294967013,4294966722,4294966722,4294966722
722752953,6466397,6492846,13572,6245,6802,4294965999,336,4294966881,10445,7038,11305,4294966691,50,4294967003,13839,4294963165,8441,4294966899,385,4294967092,4294966715,4294966715,4294966715
722758945,6467518,6494968,13373,5949,7039,4294966367,196,4294967004,10463,7037,11335,4294966638,89,4294967048,13956,4294963273,8169,4294966957,554,4294967128,4294966723,4294966723,4294966723
722764948,6466220,6493459,13470,6160,7174,4294966443,4294967278,4294966978,10519,7018,11566,4294966652,119,4294967129,13825,4294963258,8184,4294967044,733,4294967218,4294966720,4294966720,4294966720
722772953,6466278,6492396,13361,5996,7286,4294966303,4294967113,4294966935,10423,7089,11641,4294966817,104,4294967242,13938,4294963259,8425,4294967038,777,34,4294966716,4294966716,4294966716
722778940,6468970,6494685,13297,5872,7336,4294966546,4294966892,4294966914,10408,7024,11531,4294966894,12,17,13703,4294963163,8554,4294966936,712,140,4294966721,4294966721,4294966721
722784950,6467823,6493558,13518,6507,7283,4294966860,4294966618,4294966869,10413,7066,11383,4294966937,4294967258,62,13686,4294963176,8469,4294967004,611,161,4294966717,4294966717,4294966717
722790945,6466905,6493095,13548,6232,7105,4294966378,4294966763,4294966818,10404,7010,11508,4294966997,4294967246,114,13699,4294963179,8372,4294967003,474,194,4294966722,4294966722,4294966722
722796954,6467838,6494335,13404,5970,7094,4294966333,4294966919,4294966823,10367,6945,11645,4294967094,4294967234,164,13730,4294963225,8433,4294967033,445,207,4294966715,4294966715,4294966715
722802951,6467972,6494620,13304,6072,6889,4294966382,4294967120,4294966890,10371,6857,11697,4294967123,4294967145,219,13720,4294963282,8386,4294967165,393,194,4294966717,4294966717,4294966717
722808970,6467268,6494094,13266,5324,6904,4294966374,460,4294966931,10428,6904,11620,4294967092,4294967101,274,13750,4294963346,8459,3,305,214,4294966708,4294966708,4294966708
722814953,6467270,6494101,13434,6321,6797,4294966691,1043,4294966913,10363,6856,11633,4294967003,4294967141,279,13756,4294963335,8472,80,261,226,4294966716,4294966716,4294966716
722820942,6468252,6495111,12965,5694,7005,4294966321,1663,4294967026,10305,6819,11581,4294966886,4294967182,264,13809,4294963274,8431,79,241,234,4294966723,4294966723,4294966723
722826952,6467532,6494255,12959,5609,6854,4294966825,1666,4294967174,10348,6743,11626,4294966773,4294967204,251,13876,4294963330,8400,65,251,250,4294966719,4294966719,4294966719
722832969,6467770,6494283,13230,5970,6867,4294966975,1666,4294967244,10350,6682,11670,4294966744,4294967205,249,13873,4294963366,8319,56,302,283,4294966707,4294966707,4294966707
722838953,6468560,6495034,13119,5839,6894,4294966837,2033,18,10287,6681,11657,4294966784,4294967224,247,13899,4294963303,8308,9,387,283,4294966718,4294966718,4294966718
722844939,6467487,6494237,13246,6170,6904,4294967093,1834,56,10282,6766,11689,4294966833,4294967251,266,13991,4294963297,8267,4294967276,448,299,4294966725,4294966725,4294966725
722850950,6466929,6493137,13157,5853,7059,4294966983,2109,160,10218,6663,11745,4294966880,4294967178,273,14000,4294963352,8313,4294967249,566,319,4294966721,4294966721,4294966721
722856938,6467811,6494422,12962,5782,7196,4294966963,1877,255,10179,6718,11762,4294967020,4294967147,263,13905,4294963364,8302,4294967234,610,369,4294966729,4294966729,4294966729
722862947,6467224,6494459,12695,5782,7358,769,1133,224,10089,6730,11786,4294967131,4294967104,287,13881,4294963386,8350,4294967215,604,365,4294966721,4294966721,4294966721
722868951,6466979,6493241,12824,5627,7261,815,711,223,10025,6663,11701,4294967251,4294967072,335,13794,4294963348,8375,4294967236,591,403,4294966717,4294966717,4294966717
722874958,6467961,6494246,13808,6268,6856,186,1073,221,9961,6725,11618,28,4294967172,316,13838,4294963285,8374,4294967290,584,402,4294966713,4294966713,4294966713
722880949,6467757,6494219,13471,6425,7164,813,1149,281,10029,6677,11578,50,4294967281,289,13823,4294963225,8446,19,604,398,4294966721,4294966721,4294966721
722886952,6467094,6493591,12558,5225,7383,1076,995,335,9991,6684,11683,21,27,307,13861,4294963216,8457,61,649,372,4294966720,4294966720,4294966720
722892946,6466755,6492967,13613,6596,6960,1490,303,216,10053,6611,11788,4294967211,51,302,13823,4294963129,8445,161,725,355,4294966723,4294966723,4294966723
722898939,6467592,6494077,12710,5707,7101,935,789,310,10099,6673,11839,4294967175,66,281,13807,4294963105,8495,262,800,282,4294966727,4294966727,4294966727
722904940,6466805,6493221,13414,6581,6942,639,1074,345,10132,6668,11895,4294967047,21,273,13849,4294962992,8426,251,910,274,4294966727,4294966727,4294966727
722910948,6466303,6492444,12630,5930,7288,985,988,343,10249,6675,11846,4294966966,4294967261,291,13841,4294963054,8381,220,968,261,4294966723,4294966723,4294966723
722916942,6467518,6493771,13219,6432,7226,969,893,328,10316,6791,11739,4294966934,4294967193,362,13854,4294962980,8412,131,922,266,4294966727,4294966727,4294966727
722922938,6467300,6493836,12216,5549,7581,1128,864,326,10523,6804,11774,4294966987,4294967045,388,13855,4294963110,8430,4294967282,836,259,4294966729,4294966729,4294966729
722928964,6465371,6492671,13009,6195,7423,1233,319,270,10607,6809,11734,4294967035,4294966909,435,13874,4294963116,8473,4294967244,708,268,4294966711,4294966711,4294966711
722934952,6466122,6493719,14116,7048,7028,1103,63,317,10714,6803,11768,4294967072,4294966772,472,13890,4294963076,8502,4294967215,618,316,4294966721,4294966721,4294966721
722940962,6467525,6494173,13094,6439,7467,1488,4294967273,245,10773,6762,11732,4294967119,4294966587,509,14033,4294963061,8425,4294967251,470,308,4294966707,4294966707,4294966707
722946948,6466581,6493070,13520,6400,7245,700,4294967198,289,10711,6731,11766,4294967165,4294966499,526,13895,4294963079,8534,4294967223,434,334,4294966720,4294966720,4294966720
722952941,6466711,6493648,13137,6473,7195,893,4294966986,302,10771,6665,11678,4294967037,4294966490,523,13811,4294963080,8463,4294967219,329,358,4294966727,4294966727,4294966727
722958954,6467149,6494330,12745,5765,7462,477,4294967074,350,10726,6507,11723,4294967028,4294966512,537,13871,4294963076,8500,7,404,376,4294966715,4294966715,4294966715
722964972,6467402,6494433,12770,5908,7401,676,4294966752,313,10560,6460,11767,4294966936,4294966532,495,13897,4294963047,8487,38,416,380,4294966705,4294966705,4294966705
722970956,6466639,6493362,13270,6367,7197,482,4294966873,353,10538,6403,11714,4294966847,4294966562,442,13867,4294963036,8513,59,480,418,4294966715,4294966715,4294966715
722976954,6467472,6494187,13134,6224,7219,614,4294966841,344,10421,6387,11684,4294966826,4294966677,444,13717,4294963020,8504,55,382,463,4294966715,4294966715,4294966715
722982946,6467820,6494633,13015,5942,7212,330,4294966815,324,10477,6359,11684,4294966750,4294966835,425,13812,4294962953,8475,47,506,480,4294966724,4294966724,4294966724
722988955,6466893,6493566,12972,6015,7161,416,4294966618,315,10431,6429,11720,4294966815,4294966938,492,13692,4294962998,8499,11,375,462,4294966719,4294966719,4294966719
722994937,6467541,6494498,13184,6114,7170,286,4294966628,236,10390,6369,11675,4294966863,4294967073,475,13656,4294962944,8487,38,401,501,4294966728,4294966728,4294966728
723000946,6468034,6495092,13258,6318,7033,353,4294966617,214,10363,6351,11564,4294967133,4294967163,493,13544,4294962944,8497,48,254,486,4294966722,4294966722,4294966722
723006952,6466806,6493551,13508,6310,6965,39,4294966838,200,10426,6433,11476,13,4294967227,493,13565,4294962947,8522,95,169,503,4294966719,4294966719,4294966719
723012939,6466889,6493480,12952,5940,7166,4294967235,4294967066,254,10376,6335,11480,4294967186,43,482,13566,4294963020,8493,112,133,499,4294966725,4294966725,4294966725
723018958,6467571,6494106,12910,6001,7203,411,4294966797,106,10358,6376,11487,4294967177,88,409,13688,4294963040,8472,141,111,501,4294966716,4294966716,4294966716
723024956,6466272,6492707,13365,6314,6972,228,4294966840,162,10354,6245,11539,4294967126,78,376,13649,4294963019,8499,144,180,453,4294966714,4294966714,4294966714
723030951,6466126,6492333,13030,6105,7022,334,4294966871,153,10331,6215,11625,4294967130,66,301,13744,4294963067,8592,153,199,421,4294966716,4294966716,4294966716
723036956,6466650,6493008,13511,6330,6888,459,4294966740,108,10274,6206,11588,4294967129,71,272,13728,4294963096,8578,178,237,407,4294966716,4294966716,4294966716
723042959,6467564,6494030,13364,6288,6890,581,4294966643,100,10324,6158,11636,4294967194,93,214,13611,4294963076,8671,128,227,383,4294966712,4294966712,4294966712
723048962,6466289,6492739,13247,6257,6814,575,4294966502,73,10324,6183,11659,4294967245,67,181,13692,4294963011,8532,71,199,373,4294966712,4294966712,4294966712
723054951,6467229,6493637,13267,6270,6830,641,4294966298,58,10283,6215,11672,4294967295,36,154,13669,4294963059,8496,1,248,404,4294966718,4294966718,4294966718
723060942,6468355,6495451,12964,6143,6846,886,4294965917,4294967290,10255,6164,11648,45,35,171,13626,4294963099,8477,4294967241,246,384,4294966726,4294966726,4294966726
723066962,6468095,6494946,12935,6106,6735,1399,4294965136,4294967226,10268,6185,11582,173,24,183,13663,4294963084,8334,4294967196,238,362,4294966713,4294966713,4294966713
723072946,6469482,6496206,12808,6140,6804,1853,4294964304,4294967219,10255,6266,11599,237,19,235,13671,4294963101,8338,4294967133,296,351,4294966721,4294966721,4294966721
723078956,6473541,6500532,12782,6217,6736,2330,4294963479,4294967237,10278,6202,11552,328,4294967276,254,13670,4294963075,8465,4294967108,295,380,4294966714,4294966714,4294966714
723084941,6474246,6502673,12881,6138,6685,2738,4294962719,22,10350,6206,11598,391,4294967267,273,13725,4294963064,8450,4294967105,252,381,4294966727,4294966727,4294966727
723090951,6469881,6497143,12815,6180,6621,3180,4294962002,126,10364,6220,11639,571,4294967248,328,13740,4294963012,8473,4294967126,200,382,4294966719,4294966719,4294966719
723096954,6466688,6491304,12902,6155,6526,3555,4294961346,223,10361,6150,11624,582,4294967293,337,13704,4294962992,8477,4294967167,125,369,4294966720,4294966720,4294966720
723102962,6464196,6490087,12997,6223,6322,3856,4294960797,295,10390,6167,11752,728,15,366,13680,4294962959,8459,4294967202,105,369,4294966714,4294966714,4294966714
723108960,6463654,6490564,12993,6276,6272,4151,4294960412,369,10358,6175,11878,829,4294967283,325,13704,4294962927,8493,4294967261,41,361,4294966717,4294966717,4294966717
723114973,6464583,6491672,13116,6279,6442,4168,4294960142,449,10434,6182,11749,834,4294967275,285,13707,4294962972,8487,31,108,355,4294966704,4294966704,4294966704
723120961,6467391,6494214,13218,6211,6081,4160,4294959957,484,10491,6229,11585,817,4294967245,230,13648,4294962930,8592,102,23,321,4294966713,4294966713,4294966713
723126939,6468424,6493797,13412,6289,5951,4202,4294960019,414,10570,6210,11628,816,4294967176,197,13709,4294962869,8535,106,4294967293,261,4294966727,4294966727,4294966727
723132952,6469196,6494229,13614,6280,5956,4211,4294960094,339,10552,6295,11655,684,4294967167,125,13722,4294962802,8479,190,4294967276,230,4294966716,4294966716,4294966716
723138941,6470349,6495617,13637,6240,5831,4193,4294959865,300,10511,6299,11555,634,4294967240,81,13685,4294962816,8420,219,4294967282,211,4294966727,4294966727,4294966727
723144991,6470260,6495345,13631,6255,5712,4324,4294959955,199,10503,6400,11441,671,41,108,13649,4294962788,8511,181,4294967292,196,4294966692,4294966692,4294966692
723150950,6469409,6494517,13704,6294,5713,4374,4294960048,125,10597,6389,11437,623,92,139,13712,4294962844,8328,82,58,184,4294966722,4294966722,4294966722
723156949,6469963,6495742,13660,6278,5818,4377,4294960151,43,10604,6278,11625,718,17,179,13704,4294962792,8277,20,100,175,4294966718,4294966718,4294966718
723162957,6469632,6495416,13762,6375,5735,4457,4294960243,4294967224,10569,6268,11723,926,4294967240,175,13700,4294962800,8274,8,166,188,4294966713,4294966713,4294966713
723168953,6468951,6494803,13798,6377,5644,4380,4294960432,4294967185,10651,6396,11872,1021,4294967067,203,13778,4294962820,8272,53,192,196,4294966717,4294966717,4294966717
723174962,6469800,6496360,13910,6547,5506,4139,4294960626,4294967146,10660,6459,11721,966,4294966994,234,13715,4294962686,8513,162,275,535,4294966710,4294966710,4294966710
723180944,6469485,6496616,14024,6571,5486,3927,4294960862,4294967207,10723,6304,11588,957,4294966987,261,13706,4294962860,8637,225,231,148,4294966719,4294966719,4294966719
723186949,6468973,6496107,14175,6579,5316,3733,4294961125,4294967248,10797,6332,11383,1021,4294966990,277,13700,4294962806,8617,290,199,180,4294966722,4294966722,4294966722
723192952,6468967,6496174,14265,6551,5575,3441,4294961439,4294967261,10817,6366,11199,928,4294967069,301,13615,4294962794,8660,367,193,185,4294966719,4294966719,4294966719
723198950,6469676,6497827,14242,6610,5632,3083,4294961780,4294967213,10805,6440,11089,893,4294967140,242,13548,4294962838,8573,360,184,199,4294966722,4294966722,4294966722
723204944,6469291,6498244,14231,6427,5406,2651,4294962172,4294967162,10861,6367,11124,779,4294967193,233,13643,4294962784,8637,312,234,188,4294966722,4294966722,4294966722
723210958,6468949,6498055,14084,6459,5200,2330,4294962555,4294967067,10886,6503,11297,815,4294967186,178,13647,4294962799,8572,194,305,224,4294966713,4294966713,4294966713
723216960,6469808,6499623,14111,6348,5178,2119,4294962928,4294966993,10934,6435,11344,617,4294967212,118,13752,4294962713,8605,117,357,250,4294966710,4294966710,4294966710
723222951,6469979,6500416,14047,6321,5203,1993,4294963321,4294966917,10877,6461,11449,729,4294967240,124,13812,4294962725,8651,34,343,233,4294966718,4294966718,4294966718
723228946,6468747,6499542,14069,6388,5299,1869,4294963768,4294966877,10840,6424,11613,930,4294967211,124,13799,4294962782,8621,4294967289,258,217,4294966721,4294966721,4294966721
723234952,6469080,6500317,14016,6426,5250,1761,4294964144,4294966881,10787,6619,11552,1102,4294967228,161,13818,4294962786,8620,4294967274,186,258,4294966721,4294966721,4294966721
723240946,6469596,6501223,14072,6500,5303,1726,4294964503,4294966894,10735,6619,11518,1082,4294967273,204,13815,4294962854,8388,18,152,308,4294966719,4294966719,4294966719
723246963,6468724,6500445,14005,6543,5241,1719,4294964715,4294966929,10673,6641,11453,1242,79,229,13861,4294962856,8352,116,186,333,4294966710,4294966710,4294966710
723252941,6469211,6501231,14000,6636,5316,1702,4294964831,4294966982,10664,6612,11423,1360,188,288,13878,4294962948,8288,206,293,404,4294966726,4294966726,4294966726
723258967,6469884,6502076,14004,6709,5187,1665,4294964849,4294967035,10623,6688,11533,1438,354,332,13844,4294962966,8222,275,366,488,4294966709,4294966709,4294966709
723264941,6469527,6501667,13996,6766,5242,1642,4294964789,4294967078,10605,6667,11450,1446,499,310,13920,4294962907,8195,335,464,530,4294966725,4294966725,4294966725
723270971,6469056,6501232,13996,6773,5035,1660,4294964744,4294967114,10630,6636,11428,1410,633,279,13902,4294962913,8270,354,545,561,4294966706,4294966706,4294966706
723276960,6469873,6502268,14044,6837,4995,1640,4294964713,4294967144,10656,6680,11485,1351,706,266,13873,4294962902,8282,358,607,568,4294966713,4294966713,4294966713
723282946,6469960,6502610,14035,6847,4821,1630,4294964705,4294967191,10660,6621,11438,1227,806,226,13858,4294962889,8366,373,627,556,4294966722,4294966722,4294966722
723288957,6469095,6501349,14016,6831,4729,1598,4294964696,4294967236,10656,6688,11378,1016,800,216,13874,4294962912,8343,373,644,558,4294966715,4294966715,4294966715
723294953,6469043,6501689,14021,6774,4716,1603,4294964662,4294967284,10711,6710,11339,762,749,215,13848,4294962925,8356,336,695,526,4294966718,4294966718,4294966718
723300963,6469416,6502164,13996,6777,4599,1613,4294964563,21,10648,6742,11349,543,697,186,13751,4294963000,8288,314,695,522,4294966710,4294966710,4294966710
723306942,6468351,6500674,14062,6800,4564,1630,4294964486,31,10761,6705,11252,352,618,201,13753,4294962964,8318,274,671,514,4294966726,4294966726,4294966726
723312951,6468508,6501015,13999,6794,4428,1668,4294964473,25,10732,6633,11216,260,549,214,13719,4294962959,8400,281,652,513,4294966720,4294966720,4294966720
723318945,6469072,6501666,14043,6752,4384,1642,4294964447,8,10705,6582,11232,401,522,313,13683,4294962962,8310,307,614,482,4294966724,4294966724,4294966724
723324960,6467886,6500397,14059,6787,4235,1646,4294964404,4294967275,10594,6664,11294,415,381,294,13737,4294962965,8374,325,578,433,4294966714,4294966714,4294966714
723330946,6467224,6499489,14139,6781,4125,1569,4294964400,4294967279,10595,6638,11399,359,306,300,13705,4294962928,8322,366,536,447,4294966724,4294966724,4294966724
723336960,6467376,6499730,14163,6788,4040,1504,4294964428,4294967234,10577,6621,11490,672,324,375,13711,4294962985,8256,388,554,452,4294966717,4294966717,4294966717
723342958,6467145,6499797,14237,6811,4063,1335,4294964475,4294967235,10549,6669,11592,816,297,393,13625,4294962986,8423,348,557,442,4294966713,4294966713,4294966713
723348941,6466182,6498648,14238,6746,4033,1169,4294964556,4294967233,10402,6659,11654,921,248,374,13657,4294962973,8423,331,523,432,4294966726,4294966726,4294966726
723354957,6466124,6498575,14232,6755,3981,978,4294964753,4294967231,10404,6577,11635,950,291,392,13698,4294962981,8463,342,464,443,4294966716,4294966716,4294966716
723360947,6466954,6499700,14252,6725,4087,808,4294965045,4294967246,10404,6661,11525,1064,349,404,13702,4294962943,8508,355,401,441,4294966724,4294966724,4294966724
723366961,6466181,6498833,14233,6756,4039,681,4294965287,4294967290,10407,6672,11490,989,426,411,13731,4294962906,8573,358,353,428,4294966712,4294966712,4294966712
723372946,6465935,6498426,14247,6734,4196,571,4294965504,4294967274,10474,6667,11600,885,495,420,13821,4294962937,8535,376,281,440,4294966722,4294966722,4294966722
723378955,6466818,6499748,14203,6749,4226,538,4294965696,7,10527,6659,11443,823,564,432,13855,4294962957,8720,409,262,408,4294966717,4294966717,4294966717
723384944,6466291,6499337,14202,6757,4336,525,4294965880,4294967278,10605,6737,11448,740,601,419,13864,4294962913,8746,370,245,427,4294966721,4294966721,4294966721
723390947,6466176,6498718,14282,6761,4390,543,4294966035,4294967274,10600,6701,11449,601,641,393,13853,4294962899,8546,350,255,410,4294966720,4294966720,4294966720
723396945,6467280,6499710,14292,6903,4423,537,4294966212,4294967265,10641,6694,11710,502,685,350,13878,4294962899,8430,367,348,419,4294966720,4294966720,4294966720
723402955,6466549,6499104,14299,6906,4455,491,4294966362,4294967280,10639,6724,11850,541,659,327,13885,4294962961,8375,394,445,387,4294966716,4294966716,4294966716
723408948,6465808,6498226,14356,6972,4479,503,4294966405,4294967279,10642,6746,11870,534,558,286,13909,4294962895,8602,429,483,397,4294966718,4294966718,4294966718
723414956,6465992,6498836,14406,7048,4378,514,4294966475,19,10615,6773,11719,441,422,292,13854,4294962857,8676,433,509,379,4294966714,4294966714,4294966714
723420953,6467097,6500382,14291,7086,4440,497,4294966510,33,10626,6713,11610,304,376,248,13786,4294962845,8730,435,469,358,4294966719,4294966719,4294966719
723426968,6466100,6499373,14312,7144,4346,432,4294966569,55,10680,6663,11703,174,267,245,13775,4294962820,8571,460,478,304,4294966710,4294966710,4294966710
723432954,6466301,6499254,14273,7092,4354,347,4294966589,85,10621,6589,11642,108,211,215,13731,4294962846,8566,509,489,291,4294966716,4294966716,4294966716
723438951,6467189,6500375,14244,7131,4236,300,4294966552,90,10617,6585,11570,161,151,251,13678,4294962859,8587,558,527,293,4294966719,4294966719,4294966719
723444940,6466290,6499716,14228,7038,4288,273,4294966466,88,10586,6558,11632,249,116,247,13710,4294962761,8704,555,567,320,4294966725,4294966725,4294966725
723450951,6465743,6499021,14197,7028,4212,214,4294966348,61,10584,6459,11568,313,97,221,13632,4294962778,8812,548,524,328,4294966720,4294966720,4294966720
723456947,6466805,6500126,14179,7043,4133,161,4294966241,78,10478,6434,11573,370,39,257,13590,4294962762,8864,530,417,272,4294966723,4294966723,4294966723
723462959,6466461,6499814,14171,7019,4014,138,4294966231,90,10459,6350,11572,392,18,224,13480,4294962740,8939,573,241,268,4294966715,4294966715,4294966715
723468947,6465894,6499021,14201,7000,4078,82,4294966308,64,10392,6439,11379,333,62,187,13456,4294962806,8836,571,98,242,4294966721,4294966721,4294966721
723474961,6466808,6499993,14172,7035,4001,63,4294966406,49,10443,6426,11388,231,100,182,13474,4294962825,8753,563,37,243,4294966711,4294966711,4294966711
723480952,6466327,6500101,14205,6990,3989,23,4294966504,32,10463,6501,11430,236,78,133,13517,4294962802,8630,546,18,249,4294966721,4294966721,4294966721
723486943,6465589,6499506,14216,7084,4022,4294967263,4294966557,57,10500,6552,11430,75,104,61,13528,4294962821,8634,546,49,243,4294966723,4294966723,4294966723
723492956,6465647,6498900,14217,7037,3933,4294967231,4294966620,84,10482,6533,11522,8,101,62,13592,4294962816,8552,539,80,277,4294966716,4294966716,4294966716
723498965,6466670,6500109,14178,7124,3970,4294967161,4294966668,97,10495,6599,11524,4294967267,60,28,13657,4294962763,8477,506,88,269,4294966712,4294966712,4294966712
723504982,6466330,6499834,14236,7085,3863,4294967095,4294966653,129,10541,6626,11632,4294967227,20,67,13675,4294962744,8502,496,86,299,4294966697,4294966697,4294966697
723510971,6465386,6498830,14233,7057,3697,4294967040,4294966645,150,10620,6637,11630,4294967214,42,77,13725,4294962757,8596,498,120,260,4294966702,4294966702,4294966702
723516956,6465845,6499465,14186,6985,3691,4294967022,4294966630,181,10623,6597,11709,5,8,142,13685,4294962733,8669,506,86,258,4294966718,4294966718,4294966718
723522938,6466090,6499723,14191,6948,3739,4294967015,4294966603,176,10642,6531,11634,167,4294967252,150,13746,4294962765,8669,516,77,236,4294966726,4294966726,4294966726
723528952,6464841,6498573,14202,6861,3751,4294967021,4294966501,171,10680,6571,11554,174,4294967233,177,13716,4294962779,8694,520,23,237,4294966718,4294966718,4294966718
723534949,6465575,6499420,14200,6866,3722,4294966994,4294966435,125,10662,6544,11515,65,4294967274,133,13708,4294962785,8623,557,4294967295,215,4294966717,4294966717,4294966717
723540981,6466085,6499699,14264,6841,3821,4294967007,4294966382,109,10605,6470,11393,40,0,75,13617,4294962869,8639,583,31,236,4294966701,4294966701,4294966701
723546946,6465137,6498646,14255,6805,3709,4294966974,4294966400,93,10587,6416,11273,103,51,77,13591,4294962897,8561,569,8,264,4294966721,4294966721,4294966721
723552986,6465144,6498861,14269,6771,3725,4294966934,4294966427,86,10543,6390,11415,190,57,62,13586,4294962846,8576,546,42,277,4294966694,4294966694,4294966694
723558960,6465731,6499345,14335,6797,3720,4294966866,4294966437,104,10590,6473,11534,185,4294967294,69,13631,4294962899,8537,515,81,305,4294966712,4294966712,4294966712
723564955,6465840,6499267,14315,6796,3793,4294966794,4294966476,122,10546,6489,11640,194,4294967238,49,13565,4294962893,8559,488,113,322,4294966716,4294966716,4294966716
723570956,6464970,6498396,14321,6783,3764,4294966736,4294966511,121,10591,6491,11652,4294967293,4294967191,52,13622,4294962902,8484,482,166,292,4294966715,4294966715,4294966715
723576951,6465970,6499717,14382,6839,3889,4294966726,4294966474,105,10669,6491,11551,4294967285,4294967148,104,13689,4294962895,8436,437,223,324,4294966720,4294966720,4294966720
723582961,6466077,6499987,14366,6816,3911,4294966745,4294966439,120,10647,6513,11657,85,4294967152,108,13657,4294962898,8441,329,255,353,4294966717,4294966717,4294966717
723588949,6464920,6498839,14376,6771,3962,4294966803,4294966403,143,10566,6590,11566,4294967288,4294967177,97,13715,4294962810,8454,326,290,311,4294966723,4294966723,4294966723
723594953,6465662,6500109,14417,6721,3909,4294966851,4294966336,133,10686,6551,11554,4294967180,4294967290,109,13764,4294962843,8407,289,271,325,4294966717,4294966717,4294966717
723600974,6466242,6500425,14466,6661,3881,4294966923,4294966322,130,10676,6494,11469,4294967268,49,131,13744,4294962851,8517,310,254,281,4294966703,4294966703,4294966703
723606946,6465653,6499579,14451,6718,3790,4294967011,4294966330,92,10669,6557,11485,5,132,128,13805,4294962935,8558,298,318,261,4294966720,4294966720,4294966720
723612936,6465700,6500043,14461,6698,3775,4294967035,4294966339,83,10666,6519,11483,32,157,128,13807,4294962922,8547,236,340,259,4294966727,4294966727,4294966727
723618951,6466148,6500689,14391,6694,3712,4294967092,4294966382,61,10637,6514,11546,91,238,119,13734,4294962973,8487,169,423,258,4294966720,4294966720,4294966720
723624935,6465453,6499542,14384,6726,3651,4294967129,4294966451,47,10686,6449,11509,110,273,117,13642,4294962957,8462,121,368,274,4294966730,4294966730,4294966730
723630945,6465603,6499234,14376,6746,3627,4294967116,4294966575,32,10634,6460,11593,149,254,94,13707,4294962940,8587,124,400,262,4294966719,4294966719,4294966719
723636939,6466511,6500212,14384,6771,3578,4294967121,4294966678,27,10611,6497,11641,152,254,62,13828,4294962954,8583,151,398,219,4294966728,4294966728,4294966728
723642954,6467442,6501387,14359,6780,3646,4294967108,4294966768,17,10560,6559,11510,132,215,50,13730,4294962953,8565,216,393,218,4294966717,4294966717,4294966717
723648955,6466511,6500015,14373,6790,3664,4294967076,4294966777,32,10582,6573,11511,99,219,39,13722,4294962936,8582,293,383,182,4294966717,4294966717,4294966717
723654953,6466112,6500024,14317,6769,3684,4294967067,4294966726,28,10565,6599,11451,68,213,48,13696,4294962933,8639,332,344,150,4294966716,4294966716,4294966716
723660943,6467119,6501334,14285,6752,3761,4294967051,4294966622,29,10527,6574,11505,41,199,33,13695,4294962946,8608,390,341,135,4294966723,4294966723,4294966723
723666947,6466143,6499960,14255,6798,3906,4294967071,4294966480,47,10563,6579,11491,4294967283,208,5,13706,4294962879,8647,400,351,134,4294966722,4294966722,4294966722
723672956,6465885,6499490,14225,6780,3787,4294967096,4294966334,68,10547,6621,11400,4294967286,234,43,13718,4294962977,8651,354,381,118,4294966712,4294966712,4294966712
723678933,6466657,6500492,14242,6782,3713,4294967140,4294966207,102,10464,6624,11449,4294967285,222,38,13697,4294962971,8652,288,379,133,4294966732,4294966732,4294966732
723684943,6466158,6500088,14305,6805,3601,4294967135,4294966139,131,10579,6619,11501,4294967283,243,48,13714,4294962940,8622,252,382,152,4294966721,4294966721,4294966721
723690933,6465334,6498938,14300,6811,3507,4294967167,4294966183,144,10574,6578,11505,39,215,42,13701,4294962919,8620,270,382,126,4294966731,4294966731,4294966731
723696946,6466096,6499838,14322,6768,3464,4294967113,4294966295,182,10630,6623,11465,53,194,50,13710,4294962872,8678,351,335,114,4294966720,4294966720,4294966720
723702942,6465997,6499823,14360,6799,3454,4294967129,4294966417,180,10619,6550,11513,11,206,32,13693,4294962871,8694,427,269,94,4294966725,4294966725,4294966725
723708948,6465488,6499305,14352,6828,3465,4294967109,4294966535,199,10600,6513,11462,27,215,31,13643,4294962910,8699,492,185,82,4294966718,4294966718,4294966718
723714949,6465106,6499822,14334,6863,3531,4294967065,4294966606,218,10731,6523,11435,19,209,11,13642,4294962946,8701,551,90,77,4294966720,4294966720,4294966720
723720950,6466501,6501216,14394,6801,3499,4294967053,4294966638,205,10614,6456,11478,18,275,32,13616,4294962953,8611,569,33,118,4294966719,4294966719,4294966719
723726954,6466872,6501512,14418,6809,3709,4294967090,4294966696,199,10691,6542,11335,38,257,16,13531,4294962920,8549,534,17,122,4294966716,4294966716,4294966716
723732950,6468970,6503800,14392,6803,3665,4294967070,4294966642,184,10637,6487,11419,71,297,4294967290,13496,4294962877,8480,485,41,144,4294966721,4294966721,4294966721
723738954,6472199,6507963,14374,6790,3690,4294967083,4294966614,161,10618,6517,11395,116,282,4,13514,4294962872,8497,430,78,168,4294966718,4294966718,4294966718
723744953,6471001,6507812,14366,6702,3719,4294967125,4294966538,136,10623,6411,11428,140,222,32,13525,4294962873,8671,381,109,220,4294966717,4294966717,4294966717
723750950,6466209,6500899,14451,6706,3655,4294967152,4294966444,107,10656,6451,11377,161,223,26,13547,4294962809,8633,340,151,250,4294966719,4294966719,4294966719
723756945,6463188,6495849,14459,6691,3598,4294967178,4294966401,64,10722,6408,11324,114,266,4294967292,13551,4294962759,8593,301,125,265,4294966721,4294966721,4294966721
723762955,6461835,6495426,14539,6262,3497,4294967161,4294966367,13,10722,6391,11457,45,346,4294967241,13527,4294962750,8552,334,54,242,4294966714,4294966714,4294966714
723768949,6460880,6495399,14449,7317,3438,4294967166,4294966525,4294967173,10713,6373,11467,31,253,4294967255,13881,4294962872,8440,371,318,308,4294966719,4294966719,4294966719
723774957,6462660,6498991,14678,6819,3308,4294966849,4294966390,4294967273,10755,6417,11346,35,276,4294967220,13464,4294962886,8510,316,258,291,4294966714,4294966714,4294966714
723780951,6464618,6497624,14814,6278,3223,4294966829,4294966405,22,10792,6476,11261,4294967289,188,4294967204,13529,4294962744,8506,324,32,323,4294966720,4294966720,4294966720
723786959,6464416,6495391,14661,6415,3270,4294966950,4294966451,36,10763,6442,11382,4294967240,264,4294967193,13527,4294962728,8494,317,69,339,4294966715,4294966715,4294966715
723792954,6463993,6493330,14522,6851,3438,4294967097,4294966641,34,10771,6452,11337,4294967282,379,4294967199,13617,4294962773,8527,378,68,345,4294966718,4294966718,4294966718
723798969,6465354,6495006,14541,6700,3573,4294967013,4294966574,104,10718,6470,11053,51,468,4294967230,13548,4294962780,8520,415,44,297,4294966707,4294966707,4294966707
723804933,6465277,6495868,14459,6539,3697,4294966961,4294966453,119,10740,6515,11032,44,449,4294967235,13666,4294962730,8648,439,41,331,4294966731,4294966731,4294966731
723810972,6465032,6496030,14391,6486,3753,4294966917,4294966358,139,10734,6437,11370,39,393,4294967267,13616,4294962715,8575,450,29,313,4294966702,4294966702,4294966702
723816948,6466164,6497496,14375,6443,3759,4294966886,4294966180,110,10706,6402,11474,64,334,4294967266,13526,4294962742,8526,466,49,276,4294966721,4294966721,4294966721
723822940,6466533,6497887,14386,6515,3663,4294966793,4294966056,109,10679,6541,11582,75,258,4294967274,13515,4294962766,8428,469,68,281,4294966728,4294966728,4294966728
723828958,6465995,6497906,14440,6510,3451,4294966730,4294966080,122,10650,6451,11694,129,160,6,13522,4294962810,8436,509,167,250,4294966717,4294966717,4294966717
723834956,6467122,6501367,14328,6539,3200,4294966714,4294966316,201,10625,6377,11755,159,89,26,13487,4294962855,8538,577,191,261,4294966716,4294966716,4294966716
723840952,6467835,6505009,14415,6377,3126,4294966730,4294966675,226,10631,6344,11627,110,67,59,13377,4294962822,8725,615,169,319,4294966719,4294966719,4294966719
723846953,6467110,6505844,14484,6281,3240,4294966874,4294967026,135,10635,6344,11385,18,51,68,13447,4294962807,8613,577,119,240,4294966716,4294966716,4294966716
723852960,6467497,6504964,14467,6329,3236,4294967048,4294967295,4294967287,10649,6419,11198,4294967204,74,67,13509,4294962923,8451,535,225,228,4294966712,4294966712,4294966712
723858943,6467710,6504920,14443,6414,3503,4294967120,3,4294967190,10666,6423,11145,4294967149,86,40,13612,4294962922,8486,383,354,238,4294966727,4294966727,4294966727
723864966,6467894,6504914,14389,6404,3458,4294967154,4294967195,4294967161,10669,6401,11196,4294967167,106,4,13701,4294962931,8408,235,508,269,4294966707,4294966707,4294966707
723870955,6466412,6504703,14329,6384,3380,4294967025,4294967037,4294967187,10648,6397,11241,4294967242,47,4294967277,13766,4294962859,8525,126,561,288,4294966720,4294966720,4294966720
723876944,6467246,6505785,14289,6400,3484,4294967036,4294967033,4294967169,10668,6447,11438,93,28,4294967268,13840,4294962823,8552,58,435,275,4294966726,4294966726,4294966726
723882945,6467739,6505573,14341,6340,3448,4294967040,4294967032,4294967116,10618,6400,11397,327,14,18,13949,4294962790,8796,50,239,256,4294966722,4294966722,4294966722
723888956,6466383,6503436,14451,6408,3522,4294967114,4294967061,4294967089,10658,6449,11481,525,33,40,13908,4294962813,8661,135,4294967247,274,4294966716,4294966716,4294966716
723894948,6467244,6502611,14495,6549,3517,4294967195,4294967079,4294967101,10663,6412,11450,719,73,40,14056,4294962896,8589,254,4294967073,295,4294966723,4294966723,4294966723
723900963,6468177,6502712,14516,6640,3482,4294967209,4294967071,4294967145,10613,6429,11464,818,110,62,14040,4294962918,8572,422,4294966979,317,4294966712,4294966712,4294966712
723906945,6467053,6501289,14554,6660,3518,4294967196,4294966990,4294967197,10676,6473,11432,816,206,86,14044,4294962905,8480,625,4294966995,294,4294966722,4294966722,4294966722
723912953,6467405,6501995,14598,6732,3514,4294967208,4294966847,4294967264,10663,6521,11486,793,272,116,14054,4294962921,8423,824,4294967043,321,4294966718,4294966718,4294966718
723918971,6468586,6503795,14574,6748,3488,4294967258,4294966628,48,10690,6578,11499,715,339,115,14055,4294962871,8474,989,4294967094,301,4294966702,4294966702,4294966702
723924954,6467657,6503238,14535,6795,3404,4294967271,4294966373,166,10730,6533,11577,639,386,152,14069,4294962842,8528,1091,4294967125,274,4294966720,4294966720,4294966720
723930956,6467427,6503559,14501,6734,3475,4294967233,4294966199,245,10810,6628,11508,613,394,164,14045,4294962837,8516,1104,4294967144,201,4294966714,4294966714,4294966714
723936952,6467739,6504485,14498,6769,3412,4294967226,4294966107,313,10893,6582,11498,471,351,141,13941,4294962948,8401,1101,4294967185,144,4294966717,4294966717,4294966717
723942953,6467933,6505682,14554,6592,3287,4,4294966041,260,10863,6601,11388,340,308,100,14018,4294963000,8334,1047,4294967240,130,4294966717,4294966717,4294966717
723948970,6467158,6504833,14532,6925,3390,4294967258,4294966039,238,10868,6627,11458,178,267,90,13867,4294963070,8343,963,127,134,4294966709,4294966709,4294966709
723954951,6468307,6505753,14586,6719,3222,4294967230,4294965956,213,10849,6610,11403,38,261,47,13749,4294963037,8290,860,173,164,4294966719,4294966719,4294966719
723960961,6469143,6505149,14610,6644,3262,4294967244,4294965992,228,10800,6642,11371,4294967254,236,18,13682,4294963118,8296,762,220,177,4294966712,4294966712,4294966712
723966943,6468728,6502811,14505,6776,3247,4294967239,4294966108,231,10729,6623,11430,4294967222,243,4294967288,13600,4294963071,8247,698,250,207,4294966723,4294966723,4294966723
723972954,6468168,6500008,14462,6752,3293,4294967201,4294966238,281,10729,6567,11465,4294967267,327,4294967217,13525,4294963096,8263,618,270,212,4294966719,4294966719,4294966719
723978946,6468660,6500152,14579,6687,3197,4294967207,4294966390,269,10595,6601,11430,54,310,4294967220,13533,4294963122,8350,567,247,235,4294966721,4294966721,4294966721
723984955,6467585,6498515,14554,6677,3254,4294967157,4294966566,252,10537,6564,11381,78,300,4294967207,13501,4294963045,8385,496,230,252,4294966717,4294966717,4294966717
723990959,6467433,6497534,14541,6621,3347,4294967219,4294966763,168,10588,6545,11343,122,299,4294967221,13479,4294962976,8508,422,218,232,4294966713,4294966713,4294966713
723996958,6467624,6497619,14527,6636,3417,4294967143,4294966822,111,10624,6475,11305,130,334,4294967204,13395,4294962849,8514,347,199,249,4294966716,4294966716,4294966716
724002955,6467057,6495903,14521,6590,3399,4294967135,4294966849,74,10597,6393,11282,126,395,4294967194,13452,4294962753,8635,297,154,224,4294966714,4294966714,4294966714
724008958,6466187,6494546,14530,6631,3409,4294967171,4294966831,4294967253,10577,6430,11251,164,398,4294967196,13415,4294962742,8676,310,180,203,4294966714,4294966714,4294966714
724014958,6466710,6494096,14377,6875,3350,4294967020,4294966735,4294967262,10629,6413,11224,139,375,4294967197,13493,4294962758,8750,344,270,175,4294966716,4294966716,4294966716
724020955,6467412,6496134,14291,6716,3357,4294966839,4294966658,110,10596,6411,11228,128,353,4294967204,13490,4294962822,8770,349,376,199,4294966717,4294966717,4294966717
724026956,6466852,6499036,14329,6497,3224,4294966944,4294966732,50,10639,6406,11206,72,322,4294967212,13344,4294962821,8886,299,419,206,4294966714,4294966714,4294966714
724032944,6467187,6501437,14420,6678,3375,4294967102,4294966910,4294967233,10622,6438,11166,15,266,4294967246,13317,4294962778,8710,219,414,249,4294966722,4294966722,4294966722
724038960,6468858,6503931,14505,6587,3400,4294967120,4294966886,4294967160,10636,6470,11198,4294967245,262,4294967273,13458,4294962819,8557,178,518,300,4294966712,4294966712,4294966712
724044947,6467878,6505084,14438,6612,3364,4294967105,4294966848,4294967081,10656,6416,11472,4294967198,249,2,13521,4294962934,8288,143,676,308,4294966721,4294966721,4294966721
724050950,6467040,6506517,14489,6607,3279,4294967006,4294966851,4294967058,10664,6472,11744,4294967290,275,62,13598,4294962985,8245,128,787,337,4294966723,4294966723,4294966723
724056952,6467758,6508866,14541,6574,3322,4294966983,4294966881,4294967082,10662,6522,11791,116,281,112,13707,4294962966,8371,78,829,389,4294966721,4294966721,4294966721
724062946,6467061,6507530,14539,6591,3231,4294966994,4294966876,4294967067,10655,6591,11756,205,273,142,13807,4294962891,8573,37,766,436,4294966721,4294966721,4294966721
724068953,6465974,6505053,14593,6460,3249,4294967059,4294966926,4294967071,10670,6620,11652,258,283,190,13802,4294962846,8693,19,675,446,4294966715,4294966715,4294966715
724074964,6467161,6504768,14637,6494,3319,4294967146,4294966971,4294967044,10727,6533,11639,289,340,199,13810,4294962889,8663,81,546,437,4294966710,4294966710,4294966710
724080949,6466679,6503247,14715,6616,3295,4294967222,4294966999,4294967036,10812,6538,11604,310,407,215,13937,4294962909,8493,184,379,449,4294966717,4294966717,4294966717
724086944,6465723,6502048,14792,6520,3311,4294967252,4294967004,4294967034,10858,6537,11744,311,487,155,14049,4294962927,8607,277,309,488,4294966725,4294966725,4294966725
724092937,6464658,6501048,14795,6565,3295,4294967269,4294966991,4294967031,10808,6521,11713,325,490,104,14092,4294962926,8693,398,310,517,4294966729,4294966729,4294966729
724098951,6465021,6501147,14813,6578,3370,4294967257,4294966867,4294967083,10821,6489,11742,365,474,80,14182,4294962849,8695,528,286,567,4294966718,4294966718,4294966718
724104948,6464900,6500577,14834,6425,3357,4294967256,4294966756,4294967137,10832,6443,11751,382,437,35,14207,4294962795,8602,659,263,588,4294966723,4294966723,4294966723
724110958,6464230,6499610,14725,6725,3404,4294967218,4294966602,4294967172,10841,6439,11676,342,349,14,14207,4294962871,8560,769,246,563,4294966715,4294966715,4294966715
724116966,6464760,6501550,14754,6611,3325,4294967103,4294966382,4294967271,10732,6477,11677,280,301,9,14063,4294962856,8505,794,181,528,4294966709,4294966709,4294966709
724122954,6465432,6503319,14598,6570,3208,4294966994,4294966240,114,10713,6485,11517,211,260,4294967262,13974,4294962946,8382,811,185,499,4294966714,4294966714,4294966714
724128949,6465680,6503959,14542,6588,3210,4294966993,4294966222,253,10651,6484,11406,119,190,4294967236,13850,4294963039,8255,775,134,456,4294966723,4294966723,4294966723
724134942,6467503,6505423,14457,6498,3231,4294967072,4294966253,311,10625,6503,11367,52,164,4294967262,13668,4294963011,8304,755,105,413,4294966726,4294966726,4294966726
724140944,6467841,6504562,14517,6512,3278,4294967168,4294966359,302,10529,6457,11393,4,161,4294967224,13582,4294963014,8274,687,62,357,4294966723,4294966723,4294966723
724146952,6465908,6498583,14467,6498,3251,4294967127,4294966322,343,10557,6544,11414,4294967234,170,4294967215,13553,4294963045,8391,611,111,324,4294966716,4294966716,4294966716
724152963,6465918,6495864,14433,6410,3306,4294967160,4294966353,382,10553,6582,11367,4294967216,224,4294967205,13470,4294963020,8401,508,158,250,4294966712,4294966712,4294966712
724158969,6466456,6495774,14401,6371,3274,4294967141,4294966408,424,10515,6622,11322,4294967236,161,4294967204,13420,4294962972,8518,480,172,205,4294966706,4294966706,4294966706
724164967,6466991,6495635,14459,6396,3225,4294967105,4294966437,417,10501,6585,11360,4294967221,176,4294967205,13378,4294962919,8556,417,176,170,4294966709,4294966709,4294966709
724170948,6466691,6494175,14422,6294,3217,4294967084,4294966503,352,10516,6570,11246,4294967179,153,4294967227,13285,4294962805,8726,356,98,85,4294966722,4294966722,4294966722
724176961,6467271,6493729,14457,6205,3149,4294967119,4294966544,248,10607,6498,11188,4294967137,140,4294967220,13289,4294962756,8685,325,57,59,4294966714,4294966714,4294966714
724182944,6467631,6493496,14483,6508,3230,4294967191,4294966595,139,10678,6453,11189,4294967156,202,4294967261,13345,4294962765,8850,315,192,49,4294966726,4294966726,4294966726
724188953,6466588,6490808,14360,6795,3188,4294967050,4294966506,215,10693,6409,11244,4294967209,246,4294967250,13346,4294962727,8839,302,344,85,4294966717,4294966717,4294966717
724194959,6467173,6496390,14292,6567,3047,4294966920,4294966525,389,10603,6283,11303,80,220,3,13243,4294962733,8889,255,511,138,4294966712,4294966712,4294966712
724200950,6468016,6502571,14473,6337,3089,4294966998,4294966761,297,10604,6321,11336,373,74,4294967268,13075,4294962676,8842,243,536,201,4294966721,4294966721,4294966721
724206950,6466878,6502781,14638,6585,3173,4294967143,4294966933,63,10727,6329,11250,264,106,50,13157,4294962698,8824,243,470,250,4294966717,4294966717,4294966717
724212962,6466876,6503158,14749,6647,3305,4294967173,4294966915,4294967274,10660,6340,11363,262,149,79,13375,4294962719,8826,182,525,293,4294966712,4294966712,4294966712
724218947,6467303,6504495,14740,6627,3075,4294967185,4294966972,4294967219,10710,6410,11463,300,137,99,13376,4294962764,8860,161,573,335,4294966724,4294966724,4294966724
724224958,6465409,6503988,14671,6640,3047,4294967067,4294967065,4294967224,10688,6411,11461,209,185,129,13427,4294962776,8702,172,625,376,4294966712,4294966712,4294966712
724230949,6465025,6505551,14731,6633,2961,4294966986,4294967183,4294967196,10757,6387,11550,244,166,150,13561,4294962833,8703,195,665,427,4294966720,4294966720,4294966720
724236952,6465744,6506948,14619,6658,3028,4294967008,15,4294967204,10769,6453,11531,296,194,169,13778,4294962877,8590,211,700,481,4294966716,4294966716,4294966716
724242959,6466554,6507871,14590,6421,3126,4294967127,52,4294967211,10755,6435,11514,294,226,161,13818,4294962902,8539,234,730,583,4294966714,4294966714,4294966714
724248967,6465505,6504970,14693,6507,3146,4294967227,48,4294967138,10840,6488,11533,292,304,174,13888,4294962944,8430,244,740,650,4294966709,4294966709,4294966709
724254951,6466069,6503916,14776,6523,3235,13,1,4294967097,10797,6483,11580,326,415,161,13983,4294962966,8357,244,691,691,4294966716,4294966716,4294966716
724260942,6466036,6503221,14875,6561,3156,45,4294967200,4294967036,10820,6525,11690,393,471,168,14106,4294962953,8330,317,631,705,4294966727,4294966727,4294966727
724266972,6463568,6499996,14889,6531,3206,59,4294967066,4294967030,10771,6449,11734,457,471,181,14135,4294962951,8323,408,464,722,4294966704,4294966704,4294966704
724272941,6463279,6499694,14851,6363,3136,70,4294966897,4294967014,10789,6513,11741,498,495,135,14139,4294962949,8430,513,357,689,4294966725,4294966725,4294966725
724278973,6464011,6500975,14731,6762,3235,13,4294966726,4294967041,10713,6548,11738,496,525,120,14247,4294962949,8452,712,236,618,4294966706,4294966706,4294966706
724284969,6463622,6501409,14754,6666,3123,4294967251,4294966528,4294967107,10722,6447,11647,440,513,82,14038,4294962990,8440,787,147,544,4294966709,4294966709,4294966709
724290965,6463598,6501317,14849,6558,3060,4294967201,4294966272,4294967186,10597,6445,11607,346,490,55,13985,4294963053,8346,827,55,504,4294966708,4294966708,4294966708
724296956,6466062,6503979,14596,6640,3022,4294967161,4294966124,98,10657,6484,11563,228,454,35,13862,4294963129,8338,852,75,461,4294966719,4294966719,4294966719
724302946,6467185,6503785,14640,6515,2978,4294967184,4294966161,204,10583,6523,11459,120,414,16,13684,4294963087,8264,753,59,417,4294966723,4294966723,4294966723
724308963,6466884,6500892,14621,6487,3125,5,4294966207,155,10645,6496,11431,15,363,4294967257,13594,4294962945,8292,618,15,398,4294966713,4294966713,4294966713
724314954,6466822,6496292,14686,6414,3149,42,4294966213,124,10604,6556,11327,4294967196,327,4294967221,13526,4294962913,8429,482,97,370,4294966720,4294966720,4294966720
724320949,6466569,6494781,14662,6389,3106,60,4294966206,195,10630,6532,11387,4294967157,292,4294967215,13521,4294962872,8441,371,209,311,4294966721,4294966721,4294966721
724326941,6465547,6492714,14544,6357,3112,86,4294966383,266,10593,6566,11319,4294967118,232,4294967212,13498,4294962806,8587,295,328,267,4294966726,4294966726,4294966726
724332966,6466326,6492960,14504,6331,3021,1,4294966565,297,10594,6554,11357,4294967126,186,4294967200,13434,4294962745,8764,242,361,247,4294966715,4294966715,4294966715
724338946,6467730,6494788,14422,6389,3040,4294967198,4294966789,317,10569,6509,11295,4294967126,108,4294967179,13419,4294962692,8956,188,334,175,4294966724,4294966724,4294966724
724344954,6467348,6495051,14459,6178,3039,4294967203,4294966998,276,10633,6490,11340,4294967155,85,4294967206,13416,4294962557,9057,199,309,149,4294966715,4294966715,4294966715
724350953,6466628,6493837,14442,6172,3144,6,4294967127,129,10704,6409,11237,4294967205,99,4294967241,13432,4294962566,9079,252,304,104,4294966717,4294966717,4294966717
724356965,6467738,6494579,14563,6347,3187,45,4294967161,0,10720,6313,11190,4294967251,191,4294967275,13380,4294962511,9161,379,314,98,4294966708,4294966708,4294966708
724362958,6467358,6493632,14378,6759,3204,4294967259,4294967180,41,10721,6274,11239,22,225,4294967288,13327,4294962603,9142,457,296,77,4294966713,4294966713,4294966713
724368952,6467597,6497336,14477,6316,3042,4294967026,4294967082,120,10658,6296,11260,82,334,0,13290,4294962637,9050,507,390,106,4294966720,4294966720,4294966720
724374951,6470089,6503343,14479,6534,3159,4294967101,26,45,10578,6295,11265,163,269,34,13263,4294962737,8926,550,422,135,4294966720,4294966720,4294966720
724380963,6472184,6507956,14576,6421,3181,4294967077,4294967247,6,10613,6194,11378,216,267,83,13274,4294962753,8806,517,449,183,4294966709,4294966709,4294966709
724386943,6472479,6509965,14621,6506,3162,4294967108,4294967114,4294967163,10633,6251,11398,469,194,87,13287,4294962786,8642,455,544,204,4294966719,4294966719,4294966719
724392943,6471755,6512614,14601,6533,3179,4294967133,4294967114,4294967128,10727,6428,11442,469,242,101,13300,4294962759,8709,449,563,211,4294966723,4294966723,4294966723
724398946,6467591,6508225,14635,6580,3132,4294967110,4294967201,4294967151,10732,6425,11511,335,275,146,13350,4294962839,8735,434,562,245,4294966722,4294966722,4294966722
724404945,6463299,6503434,14674,6567,3114,4294967103,21,4294967139,10731,6418,11597,359,287,213,13412,4294962890,8648,443,440,236,4294966722,4294966722,4294966722
724410949,6461371,6503963,14705,6623,3054,4294967127,162,4294967138,10738,6343,11705,383,269,235,13437,4294962881,8533,441,310,240,4294966723,4294966723,4294966723
724416962,6463138,6506224,14672,6525,3120,4294967163,263,4294967161,10807,6421,11791,427,253,252,13553,4294962942,8370,436,262,307,4294966713,4294966713,4294966713
724422946,6464865,6504660,14681,6528,3108,4294967283,267,4294967159,10768,6459,11713,493,232,242,13625,4294963037,8350,396,202,397,4294966722,4294966722,4294966722
724428944,6464851,6502780,14751,6443,3174,92,220,4294967149,10821,6518,11571,428,211,215,13776,4294963090,8306,352,123,494,4294966725,4294966725,4294966725
724434946,6466136,6503518,14854,6455,3012,129,134,4294967130,10755,6419,11823,377,181,188,13956,4294963040,8099,297,147,576,4294966722,4294966722,4294966722
724440959,6465703,6503163,14855,6291,3109,187,4294967277,4294967135,10762,6395,11822,407,221,169,14056,4294963037,8113,336,134,650,4294966718,4294966718,4294966718
724446952,6463832,6502041,14716,6657,3085,267,4294967140,4294967125,10740,6442,11693,420,256,133,14207,4294962946,8218,406,124,679,4294966720,4294966720,4294966720
724452967,6464025,6503687,14698,6621,3099,152,4294966877,4294967192,10682,6488,11527,384,279,111,14144,4294962946,8318,464,180,682,4294966707,4294966707,4294966707
724458957,6464778,6504524,14878,6506,3116,87,4294966635,4294967223,10626,6389,11550,334,305,84,14027,4294962922,8245,541,23,635,4294966718,4294966718,4294966718
724464976,6465429,6505202,14652,6463,3033,4294967150,4294966126,113,10669,6415,11512,262,301,48,14110,4294962906,8228,593,4294967287,597,4294966703,4294966703,4294966703
724470945,6466213,6504919,14662,6270,2934,4294967195,4294965994,150,10590,6454,11606,167,277,10,13995,4294962978,8286,639,6,518,4294966721,4294966721,4294966721
724476957,6468120,6505094,14739,6505,2820,4294967177,4294965974,153,10570,6471,11789,107,234,4294967290,13777,4294962967,8285,649,4294967230,455,4294966716,4294966716,4294966716
724482939,6466906,6498122,14713,6449,2659,4294967228,4294966069,227,10569,6457,11748,102,189,4294967271,13752,4294962960,8560,723,4294967228,397,4294966727,4294966727,4294966727
724488958,6465388,6495764,14599,6384,2711,33,4294966366,242,10501,6415,11541,4294967272,174,4294967242,13649,4294962922,8698,695,14,331,4294966713,4294966713,4294966713
724494956,6466051,6495844,14561,6397,2729,61,4294966702,311,10535,6522,11247,4294967138,151,4294967152,13471,4294962860,8815,637,28,245,4294966716,4294966716,4294966716
724500946,6467818,6497322,14571,6296,2841,29,4294966939,314,10556,6574,11125,4294967037,92,4294967154,13378,4294962820,8852,568,64,115,4294966724,4294966724,4294966724
724506943,6467899,6497205,14545,6277,2866,4294967274,4294967115,275,10559,6543,11122,4294966992,61,4294967135,13286,4294962812,8940,437,96,20,4294966722,4294966722,4294966722
724512968,6468400,6497980,14550,6234,3049,4294967165,4294967201,276,10582,6544,11048,4294967033,15,4294967091,13240,4294962838,8949,295,157,4294967250,4294966704,4294966704,4294966704
724518949,6468894,6498143,14497,6165,3093,4294967056,4294967134,197,10618,6487,11084,4294967111,4294967229,4294967055,13201,4294962764,9044,235,178,4294967244,4294966720,4294966720,4294966720
724524948,6467793,6496492,14451,6238,3165,4294967019,4294967067,100,10665,6407,11159,4294967194,4294967210,4294967031,13265,4294962645,9149,164,212,4294967239,4294966723,4294966723,4294966723
724530961,6467580,6496448,14390,6536,3042,4294966952,4294966954,89,10516,6197,11204,144,4294967131,4294967031,13245,4294962560,9213,103,251,4294967253,4294966711,4294966711,4294966711
724536947,6468906,6499147,14397,6369,2985,4294966839,4294966889,161,10548,6295,11118,562,4294967102,4294967022,13221,4294962582,9171,89,277,4294967257,4294966724,4294966724,4294966724
724542955,6470950,6504229,14429,6548,3001,4294966920,4294967031,66,10667,6346,11136,519,4294967200,4294967110,13198,4294962603,9067,94,243,4294967293,4294966717,4294966717,4294966717
724548957,6469319,6503604,14542,6464,3037,4294966960,4294967063,2,10756,6366,11080,502,42,4294967165,13151,4294962680,8970,137,299,30,4294966716,4294966716,4294966716
724554974,6469974,6506514,14592,6637,3109,4294967016,4294967110,4294967209,10807,6330,11132,614,165,4294967204,13169,4294962680,8661,167,417,94,4294966707,4294966707,4294966707
724560955,6470131,6511117,14698,6654,3139,4294967066,4294967193,4294967130,10813,6399,11282,539,333,49,13338,4294962650,8534,199,504,157,4294966720,4294966720,4294966720
724566974,6468225,6514563,14760,6511,3083,4294967105,13,4294967086,10821,6353,11431,554,461,110,13365,4294962705,8599,233,532,213,4294966707,4294966707,4294966707
724572949,6468010,6514906,14834,6690,3131,4294967111,167,4294967042,10939,6441,11441,538,551,170,13502,4294962749,8419,238,448,244,4294966718,4294966718,4294966718
724578945,6468889,6514367,14871,6603,2995,4294967138,279,4294967024,10959,6438,11503,499,597,223,13615,4294962775,8394,235,417,302,4294966721,4294966721,4294966721
724584947,6468545,6510555,14869,6505,2992,4294967155,400,4294966977,10982,6494,11547,495,614,253,13707,4294962816,8366,190,339,326,4294966720,4294966720,4294966720
724590962,6468360,6508561,14939,6487,3032,4294967233,415,4294966946,10932,6443,11643,480,640,266,13783,4294962909,8282,238,266,390,4294966709,4294966709,4294966709
724596946,6468494,6508348,14866,6571,2954,4294967269,367,4294966968,10899,6493,11661,474,653,283,13889,4294963015,8214,256,198,418,4294966721,4294966721,4294966721
724602951,6466353,6507153,14803,6434,3026,25,302,4294967009,10809,6461,11726,469,674,273,13958,4294963054,8256,322,199,523,4294966719,4294966719,4294966719
724608950,6465038,6505629,14769,6320,3050,103,240,4294966949,10744,6474,11698,479,620,229,13969,4294963041,8172,426,174,548,4294966717,4294966717,4294966717
724614965,6465129,6505132,14859,6380,3088,153,0,4294966889,10700,6435,11699,414,604,177,14006,4294963106,8290,536,174,564,4294966709,4294966709,4294966709
724620960,6466020,6505188,14794,6467,3058,102,4294966919,4294966943,10563,6476,11642,384,582,103,14014,4294963126,8234,635,172,558,4294966713,4294966713,4294966713
724626959,6465943,6504460,14600,6492,2999,45,4294966716,4294967096,10492,6434,11540,330,538,36,14007,4294963127,8229,693,238,524,4294966712,4294966712,4294966712
724632942,6467128,6505693,14491,6260,2963,4294967206,4294966444,4294967274,10427,6423,11466,202,532,4294967273,13939,4294963165,8170,647,300,515,4294966725,4294966725,4294966725
724638958,6469271,6506122,14493,6215,2872,88,4294966565,4294967269,10430,6484,11418,77,453,4294967220,13825,4294963104,8251,520,300,451,4294966713,4294966713,4294966713
724644944,6467474,6499411,14499,6298,2899,139,4294966646,4294967284,10375,6469,11275,4294967263,398,4294967173,13754,4294963122,8253,315,278,420,4294966724,4294966724,4294966724
724650956,6465207,6495882,14510,6262,2919,177,4294966730,4294967264,10343,6492,11230,4294967209,393,4294967127,13639,4294962997,8301,151,362,366,4294966716,4294966716,4294966716
724656956,6465591,6495969,14461,6304,2841,189,4294966855,4294967283,10400,6463,11258,4294967215,367,4294967101,13620,4294962927,8413,50,364,320,4294966715,4294966715,4294966715
724662946,6465699,6495496,14401,6401,2828,167,4294967016,45,10359,6526,11291,4294967281,349,4294967109,13558,4294962878,8515,4294967292,428,253,4294966724,4294966724,4294966724
724668974,6465405,6495545,14440,6363,2824,89,4294967120,29,10371,6548,11352,90,298,4294967125,13471,4294962747,8781,58,431,205,4294966705,4294966705,4294966705
724674964,6467558,6497393,14426,6259,2828,23,4294967224,36,10443,6538,11193,176,237,4294967168,13360,4294962730,8891,127,343,129,4294966709,4294966709,4294966709
724680952,6467664,6496946,14374,6313,2937,4294967289,4294967235,5,10551,6487,11004,214,241,4294967194,13390,4294962627,9114,222,309,90,4294966719,4294966719,4294966719
724686952,6466654,6495699,14380,6307,3015,4294967255,4294967165,0,10600,6459,10921,170,288,4294967238,13324,4294962567,9232,296,294,54,4294966719,4294966719,4294966719
724692950,6466722,6495718,14432,6349,3059,4294967250,4294967088,4294967247,10634,6383,11068,131,323,4294967253,13211,4294962536,9085,353,276,19,4294966720,4294966720,4294966720
724698946,6467761,6497541,14498,6431,3003,4294967171,4294966999,4294967238,10712,6281,11211,153,343,4294967281,13166,4294962563,8885,359,378,44,4294966723,4294966723,4294966723
724704969,6467732,6499760,14529,6365,2988,4294967060,4294966968,4294967288,10687,6300,11442,248,330,12,13115,4294962695,8897,373,500,88,4294966707,4294966707,4294966707
724710957,6467458,6501279,14604,6446,2930,4294967107,4294967089,4294967244,10762,6341,11489,286,313,33,13071,4294962687,8926,316,581,125,4294966714,4294966714,4294966714
724716955,6468245,6502932,14689,6488,3008,4294967123,4294967165,4294967217,10782,6415,11459,242,252,48,13018,4294962733,9048,231,672,194,4294966717,4294966717,4294966717
724722960,6467825,6503612,14699,6542,3011,4294967165,4294967289,4294967172,10830,6419,11473,213,188,72,13172,4294962673,8898,171,741,212,4294966715,4294966715,4294966715
724728969,6466288,6506315,14807,6452,2997,4294967126,95,4294967180,10827,6394,11616,233,152,97,13139,4294962724,8808,202,730,240,4294966708,4294966708,4294966708
724734953,6466017,6510255,14809,6443,3035,4294967175,284,4294967142,10772,6482,11600,276,90,136,13216,4294962808,8810,294,629,227,4294966716,4294966716,4294966716
724740946,6465928,6510914,14872,6508,2946,4294967161,421,4294967099,10783,6479,11587,341,47,161,13315,4294962859,8776,338,460,279,4294966722,4294966722,4294966722
724746959,6464578,6508568,14816,6459,3024,4294967121,521,4294967086,10811,6434,11591,452,80,211,13471,4294962798,8663,373,327,363,4294966713,4294966713,4294966713
724752952,6465524,6507202,14766,6534,3157,4294967157,532,4294967077,10773,6431,11637,554,122,208,13698,4294962745,8613,333,202,424,4294966718,4294966718,4294966718
724758966,6466373,6506545,14770,6432,3116,4294967180,435,4294967106,10736,6338,11663,588,149,219,13763,4294962741,8567,328,84,483,4294966710,4294966710,4294966710
724764960,6466374,6505672,14693,6384,3080,4294967213,292,4294967093,10710,6308,11676,566,203,202,13860,4294962774,8447,332,4294967277,514,4294966716,4294966716,4294966716
724770966,6465086,6503629,14770,6432,3064,4294967289,169,4294967063,10752,6359,11647,505,233,183,13939,4294962743,8301,359,4294967202,520,4294966709,4294966709,4294966709
724776933,6466067,6504573,14807,6404,3048,79,4294967227,4294967034,10732,6336,11705,425,276,139,14046,4294962807,8259,442,4294967163,523,4294966730,4294966730,4294966730
724782963,6465904,6504080,14808,6435,3029,99,4294966965,4294967048,10762,6433,11667,401,327,110,14109,4294962861,8284,534,4294967208,489,4294966716,4294966716,4294966716
724788948,6464507,6503210,14726,6378,2947,128,4294966679,4294967128,10638,6451,11597,364,382,38,14179,4294962963,8263,631,13,452,4294966722,4294966722,4294966722
724794942,6465226,6503947,14660,6391,2953,153,4294966522,4294967151,10607,6459,11537,329,394,4294967287,14133,4294963035,8321,652,122,488,4294966726,4294966726,4294966726
724800944,6466216,6504567,14584,6383,2870,195,4294966424,4294967196,10606,6536,11497,321,426,4294967262,14098,4294963023,8262,625,182,461,4294966726,4294966726,4294966726
724806947,6465127,6503873,14595,6435,2950,213,4294966470,4294967225,10590,6538,11417,285,458,4294967245,13993,4294963012,8375,597,212,423,4294966722,4294966722,4294966722
724812955,6465394,6502997,14578,6463,2890,243,4294966621,4294967277,10584,6556,11406,267,463,4294967210,13916,4294962914,8504,544,214,382,4294966715,4294966715,4294966715
724818941,6465395,6500865,14599,6511,2978,201,4294966782,4294967260,10580,6591,11289,247,455,4294967202,13828,4294962870,8706,544,222,333,4294966726,4294966726,4294966726
724824949,6464598,6497226,14672,6415,2978,153,4294966937,4294967284,10582,6532,11345,223,420,4294967198,13747,4294962788,8808,528,248,282,4294966720,4294966720,4294966720
724830944,6464859,6495122,14541,6447,2979,122,4294967042,4294967275,10564,6570,11288,225,392,4294967171,13695,4294962719,8918,488,304,187,4294966723,4294966723,4294966723
724836944,6465890,6495435,14557,6389,2945,40,4294967092,4294967260,10586,6565,11258,239,389,4294967139,13553,4294962718,8952,449,398,126,4294966721,4294966721,4294966721
724842946,6467105,6495872,14551,6437,3009,11,4294967100,4294967258,10587,6482,11244,250,376,4294967139,13369,4294962716,9073,433,441,112,4294966719,4294966719,4294966719
724848954,6466365,6494744,14601,6385,3012,4294967256,4294967039,4294967264,10610,6476,11270,250,373,4294967135,13295,4294962703,9046,403,444,57,4294966718,4294966718,4294966718
724854947,6467435,6495707,14543,6394,3030,4294967194,4294966978,4294967243,10670,6455,11183,227,388,4294967131,13265,4294962722,9044,364,546,48,4294966724,4294966724,4294966724
724860945,6468192,6497658,14559,6462,3063,4294967134,4294966929,4294967239,10699,6422,11282,192,381,4294967122,13106,4294962750,8926,299,618,51,4294966722,4294966722,4294966722
724866950,6466785,6498104,14476,6533,3014,4294967095,4294966939,4294967242,10694,6415,11264,182,362,4294967119,13131,4294962784,8866,261,672,39,4294966719,4294966719,4294966719
724872952,6467359,6500828,14526,6507,2958,4294967091,4294967042,4294967200,10615,6376,11255,164,301,4294967136,13085,4294962734,8848,196,749,32,4294966717,4294966717,4294966717
724878952,6468155,6503087,14653,6418,3088,4294967056,4294967157,4294967140,10746,6421,11283,188,317,4294967165,12989,4294962799,8797,135,812,62,4294966716,4294966716,4294966716
724884950,6467081,6503705,14700,6620,3003,4294967129,4294967256,4294967022,10688,6368,11328,190,301,4294967199,13199,4294962712,8699,36,846,72,4294966720,4294966720,4294966720
724890956,6466003,6507060,14700,6603,2955,4294967015,4294967293,4294967056,10660,6454,11322,230,331,4294967219,13283,4294962705,8629,13,926,98,4294966714,4294966714,4294966714
724896961,6466415,6511271,14653,6636,3003,4294967023,285,4294967035,10661,6445,11381,279,331,4294967289,13005,4294962684,8855,26,814,119,4294966714,4294966714,4294966714
724902959,6465102,6510513,14698,6569,2923,4294966971,434,4294967039,10673,6427,11469,394,351,35,13184,4294962662,8886,77,528,142,4294966715,4294966715,4294966715
724908959,6464553,6507672,14699,6507,2931,4294967021,567,4294966974,10627,6434,11538,541,391,76,13296,4294962764,8861,74,286,181,4294966713,4294966713,4294966713
724914956,6465614,6507096,14670,6509,2994,4294967070,635,4294966957,10649,6426,11636,569,404,113,13316,4294962706,8864,117,26,200,4294966714,4294966714,4294966714
724920950,6466815,6505836,14620,6527,3055,4294967142,567,4294966932,10681,6449,11716,625,416,91,13547,4294962770,8787,189,4294967153,227,4294966719,4294966719,4294966719
724926958,6465742,6503190,14690,6587,3081,4294967199,407,4294966940,10704,6440,11687,621,411,105,13734,4294962848,8804,306,4294967139,312,4294966713,4294966713,4294966713
724932955,6465030,6501409,14646,6626,3118,4294967229,246,4294966972,10741,6433,11819,583,390,110,13851,4294962870,8727,407,4294967163,395,4294966719,4294966719,4294966719
724938942,6465257,6501928,14688,6513,3154,4294967243,38,4294967006,10690,6485,11707,521,353,98,13839,4294962896,8644,521,4294967252,470,4294966726,4294966726,4294966726
724944953,6464593,6501338,14643,6457,3129,6,4294967107,4294967035,10648,6475,11762,460,364,81,13955,4294962849,8546,623,8,523,4294966717,4294966717,4294966717
724950949,6463399,6500438,14599,6627,3126,4294967286,4294966924,4294967068,10655,6496,11784,395,305,39,13947,4294962892,8558,687,130,534,4294966723,4294966723,4294966723
724956942,6464210,6502492,14637,6472,3072,4294967291,4294966806,4294967132,10676,6459,11641,350,278,32,13984,4294962881,8399,696,184,559,4294966726,4294966726,4294966726
724962963,6464261,6503889,14678,6458,2980,1,4294966681,4294967201,10601,6501,11638,305,249,2,13929,4294962881,8445,650,246,537,4294966713,4294966713,4294966713
724968955,6464487,6503354,14716,6260,2990,77,4294966655,4294967218,10588,6492,11636,271,223,4294967279,13943,4294962890,8399,593,277,493,4294966717,4294966717,4294966717
724974958,6465895,6503621,14786,6295,2909,212,4294966723,4294967115,10603,6496,11513,175,264,4294967250,13756,4294962862,8495,440,311,424,4294966714,4294966714,4294966714
724980981,6465704,6501731,14840,6350,3006,211,4294966785,4294967097,10621,6524,11483,108,291,4294967216,13755,4294962815,8633,290,284,363,4294966697,4294966697,4294966697
724986948,6464985,6499877,14700,6343,2994,195,4294966882,4294967146,10590,6482,11382,68,337,4294967153,13697,4294962745,8684,200,322,297,4294966721,4294966721,4294966721
724992964,6464383,6497098,14730,6344,3002,134,4294967037,4294967168,10582,6509,11293,58,392,4294967140,13594,4294962657,8861,158,307,229,4294966709,4294966709,4294966709
724998960,6464873,6497171,14708,6358,3083,99,4294967127,4294967193,10611,6638,11239,71,438,4294967115,13473,4294962713,8927,143,291,148,4294966716,4294966716,4294966716
725004960,6465755,6495641,14667,6275,3069,89,4294967127,4294967190,10589,6583,11332,118,454,4294967077,13411,4294962672,9022,188,296,92,4294966711,4294966711,4294966711
725010961,6467415,6496055,14666,6358,3156,42,4294967075,4294967167,10573,6550,11304,159,462,4294967083,13326,4294962687,8976,259,273,51,4294966711,4294966711,4294966711
725016953,6471662,6499887,14667,6414,3127,1,4294967053,4294967158,10564,6522,11246,216,440,4294967094,13187,4294962672,9126,380,236,56,4294966720,4294966720,4294966720
725022950,6474154,6505260,14611,6337,3016,4294967261,4294967014,4294967198,10591,6592,11281,276,419,4294967126,13154,4294962654,9230,460,222,29,4294966717,4294966717,4294966717
725028949,6469672,6500925,14546,6477,3048,4294967191,4294966967,4294967192,10581,6528,11220,305,414,4294967147,13214,4294962615,9156,531,261,9,4294966721,4294966721,4294966721
725034965,6466847,6495858,14473,6586,3082,4294967084,4294966975,4294967244,10596,6464,11187,313,383,4294967192,13131,4294962614,9055,499,283,4294967291,4294966713,4294966713,4294966713
725040949,6463873,6494775,14550,6442,2885,4294967038,4294967030,4294967284,10597,6443,11277,312,388,4294967215,13037,4294962611,8883,450,332,4294967294,4294966723,4294966723,4294966723
725046974,6462745,6496632,14598,6484,2870,4294967045,19,4294967255,10616,6388,11442,305,328,4294967268,13190,4294962635,8756,348,311,4294967276,4294966705,4294966705,4294966705
725052944,6464530,6500328,14603,6466,2903,4294967054,196,4294967166,10611,6332,11592,335,305,4294967274,13176,4294962700,8453,218,346,4294967272,4294966723,4294966723,4294966723
725058944,6465456,6500565,14629,6453,2942,4294967049,298,4294967122,10645,6372,11493,382,227,4294967286,13306,4294962728,8501,80,359,12,4294966725,4294966725,4294966725
725064944,6465641,6506804,14557,6478,2864,4294967083,486,4294967122,10644,6415,11494,363,115,4294967282,13393,4294962834,8489,4294967236,393,42,4294966725,4294966725,4294966725
725070965,6464601,6509140,14538,6476,2856,4294967131,699,4294967122,10598,6491,11656,304,24,8,13484,4294962821,8490,4294967149,383,72,4294966712,4294966712,4294966712
725076935,6465102,6510861,14516,6398,3028,4294967178,823,4294967080,10673,6533,11551,359,28,50,13570,4294962903,8570,4294967140,313,122,4294966730,4294966730,4294966730
725082951,6465978,6509639,14444,6437,3133,4294967276,849,4294967039,10644,6574,11449,499,43,63,13607,4294962926,8647,4294967220,259,186,4294966719,4294966719,4294966719
725088947,6465280,6505154,14455,6448,3310,102,774,4294966988,10693,6503,11498,585,74,80,13635,4294962931,8748,23,166,264,4294966720,4294966720,4294966720
725094951,6466555,6504785,14553,6529,3361,138,590,4294966935,10654,6469,11550,694,119,105,13706,4294962923,8666,170,58,350,4294966717,4294966717,4294966717
725100950,6466914,6504358,14544,6543,3441,60,369,4294966945,10652,6449,11712,805,139,100,13821,4294962889,8524,409,8,452,4294966720,4294966720,4294966720
725106946,6465347,6502692,14525,6618,3406,4294967286,174,4294966998,10649,6449,11845,847,102,96,13830,4294962887,8466,590,46,510,4294966717,4294966717,4294966717
725112970,6465716,6503818,14672,6581,3265,4294967281,66,4294967007,10625,6504,11902,856,58,84,13825,4294962858,8435,849,114,609,4294966709,4294966709,4294966709
725118944,6466532,6504859,14849,6602,3162,78,4294967267,4294966980,10631,6479,11768,797,70,97,13671,4294962823,8517,1050,119,626,4294966722,4294966722,4294966722
725124945,6465424,6504210,14927,6659,3085,108,4294967175,4294967041,10714,6444,11661,658,174,107,13662,4294962752,8565,1160,153,614,4294966724,4294966724,4294966724
725130956,6465585,6504980,14875,6485,2965,124,4294967042,4294967149,10734,6521,11361,509,239,71,13788,4294962773,8496,1146,271,606,4294966716,4294966716,4294966716
725136960,6466236,6505793,14851,6550,2948,177,4294967086,4294967159,10696,6645,11314,344,252,29,13610,4294962762,8629,982,325,545,4294966712,4294966712,4294966712
725142949,6466493,6506168,14860,6528,2995,193,4294967180,4294967169,10750,6662,11171,196,291,4294967286,13499,4294962726,8691,749,322,467,4294966721,4294966721,4294966721
725148977,6465273,6503712,14861,6487,3020,256,4294967244,4294967152,10747,6657,11243,53,293,4294967212,13485,4294962802,8709,450,366,429,4294966702,4294966702,4294966702
725154971,6465631,6501396,14779,6491,3107,267,4294967266,4294967161,10709,6663,11307,4294967215,234,4294967151,13481,4294962894,8843,240,407,380,4294966708,4294966708,4294966708
725160964,6466282,6501623,14702,6398,2993,224,60,4294967152,10569,6724,11340,4294967231,161,4294967127,13451,4294962867,8908,78,358,365,4294966708,4294966708,4294966708
725166939,6465690,6499856,14655,6442,3014,149,172,4294967123,10502,6696,11342,46,124,4294967116,13367,4294962903,9027,17,231,315,4294966727,4294966727,4294966727
725172948,6466874,6498406,14602,6407,3061,73,310,4294967096,10466,6633,11460,156,33,4294967106,13429,4294962810,9000,5,67,298,4294966721,4294966721,4294966721
725178954,6468562,6497712,14527,6506,3086,4294967258,381,4294967094,10430,6632,11447,323,4,4294967122,13340,4294962740,9173,119,4294967207,291,4294966716,4294966716,4294966716
725184943,6468291,6496766,14431,6509,3122,4294967220,436,4294967094,10478,6568,11363,452,4294967263,4294967154,13366,4294962674,9207,290,4294967075,260,4294966724,4294966724,4294966724
725190944,6468226,6497515,14431,6530,3242,4294967182,330,4294967111,10522,6610,11367,552,71,4294967187,13389,4294962563,9162,468,4294967009,257,4294966724,4294966724,4294966724
725196955,6469246,6499325,14384,6635,3313,4294967156,205,4294967117,10590,6579,11264,596,150,4294967207,13387,4294962480,9095,661,4294967030,219,4294966716,4294966716,4294966716
725202936,6468895,6500682,14462,6606,3217,4294967129,1,4294967102,10605,6532,11389,574,290,4294967242,13362,4294962534,8983,737,4294967119,193,4294966730,4294966730,4294966730
725208967,6468557,6501162,14553,6721,3211,4294967173,4294967186,4294967091,10657,6616,11367,563,379,4294967279,13404,4294962557,8839,701,4294967231,215,4294966710,4294966710,4294966710
725214949,6468972,6502197,14535,6649,3186,4294967104,4294967115,4294967142,10748,6611,11387,500,434,20,13434,4294962680,8673,559,148,176,4294966718,4294966718,4294966718
725220951,6470432,6505492,14626,6650,3115,4294967173,4294967219,4294967118,10780,6627,11424,391,431,51,13456,4294962710,8545,337,345,182,4294966719,4294966719,4294966719
725226958,6469525,6504724,14645,6756,3166,4294967110,17,4294967136,10776,6617,11415,276,410,79,13543,4294962855,8404,118,567,208,4294966715,4294966715,4294966715
725232945,6469643,6507649,14655,6607,3081,4294967081,35,4294967159,10731,6643,11453,171,392,76,13507,4294962880,8406,4294967232,805,256,4294966722,4294966722,4294966722
725238953,6470211,6512665,14654,6631,3059,4294967191,261,4294967085,10733,6656,11447,105,332,98,13444,4294962880,8488,4294967108,778,272,4294966718,4294966718,4294966718
725244988,6468917,6514054,14646,6683,3106,4294967183,312,4294967074,10734,6615,11553,113,316,119,13543,4294962865,8562,4294967091,757,287,4294966701,4294966701,4294966701
725250944,6467558,6513435,14579,6669,3115,4294967254,400,4294967086,10641,6623,11477,135,305,120,13526,4294962878,8710,4294967157,723,346,4294966725,4294966725,4294966725
725256953,6467671,6514148,14543,6733,3054,9,480,4294967092,10624,6669,11547,186,295,137,13553,4294962835,8831,4294967243,441,330,4294966719,4294966719,4294966719
725262949,6467234,6510373,14553,6603,3050,34,558,4294967079,10547,6578,11634,270,261,137,13563,4294962856,8844,118,308,397,4294966722,4294966722,4294966722
725268955,6466421,6506449,14580,6658,3117,89,575,4294967047,10605,6600,11733,338,254,133,13560,4294962932,8763,258,161,429,4294966715,4294966715,4294966715
725274943,6467305,6506004,14668,6609,3226,92,466,4294967041,10580,6553,11724,388,269,117,13600,4294962930,8653,409,38,451,4294966719,4294966719,4294966719
725280956,6466798,6504785,14567,6621,3190,109,335,4294967019,10525,6580,11706,446,300,132,13633,4294963013,8684,548,17,521,4294966719,4294966719,4294966719
725286946,6465919,6503567,14577,6664,3235,100,258,4294966998,10437,6545,11749,432,319,117,13675,4294962948,8594,654,4294967279,604,4294966722,4294966722,4294966722
725292954,6464996,6502556,14594,6655,3197,74,131,4294967002,10436,6515,11754,458,297,97,13593,4294962966,8630,772,29,583,4294966720,4294966720,4294966720
725298959,6465980,6503637,14553,6599,3189,36,4294967284,4294967022,10457,6552,11638,468,283,82,13733,4294962843,8646,776,77,593,4294966719,4294966719,4294966719
725304970,6465359,6503922,14561,6663,3164,2,4294967138,4294967051,10418,6557,11545,432,287,76,13724,4294962796,8667,764,151,540,4294966709,4294966709,4294966709
725310956,6464497,6504421,14538,6626,3245,4294967288,4294967020,4294967117,10482,6584,11453,331,322,80,13744,4294962863,8553,717,205,501,4294966716,4294966716,4294966716
725316970,6466115,6506675,14586,6528,3248,35,4294966894,4294967186,10547,6616,11377,264,344,46,13668,4294962806,8632,642,307,488,4294966705,4294966705,4294966705
725322960,6466733,6506631,14544,6556,3148,105,4294966857,4294967181,10508,6641,11268,134,372,12,13617,4294962771,8727,499,321,468,4294966712,4294966712,4294966712
725328946,6465881,6504613,14551,6664,3229,150,4294966857,4294967201,10567,6663,11103,35,378,4294967284,13571,4294962776,8638,308,302,441,4294966724,4294966724,4294966724
725334953,6466118,6504438,14539,6607,3273,163,4294966901,4294967210,10609,6607,11307,4294967218,394,4294967279,13567,4294962756,8555,154,325,381,4294966716,4294966716,4294966716
725340958,6466430,6501706,14553,6523,3253,99,4294966954,4294967222,10603,6615,11456,4294967201,414,4294967243,13572,4294962819,8526,86,400,369,4294966712,4294966712,4294966712
725346961,6465495,6499441,14608,6612,3168,76,4294966984,4294967242,10534,6577,11677,4294967286,418,4294967209,13560,4294962913,8690,93,401,347,4294966717,4294966717,4294966717
725352948,6466494,6499045,14546,6611,3193,72,4294967053,4294967264,10536,6657,11649,60,361,4294967183,13467,4294962846,8956,125,360,349,4294966722,4294966722,4294966722
725358961,6467360,6498384,14550,6635,3148,42,4294967105,4294967275,10498,6712,11552,101,270,4294967204,13483,4294962755,9152,233,254,295,4294966712,4294966712,4294966712
725364947,6467859,6497551,14546,6667,3144,19,4294967126,4294967269,10562,6737,11524,116,236,4294967212,13402,4294962625,9256,253,135,287,4294966721,4294966721,4294966721
725370962,6467217,6495975,14590,6584,3103,5,4294967177,4294967286,10566,6650,11512,111,257,4294967175,13358,4294962525,9293,398,39,189,4294966709,4294966709,4294966709
725376976,6468281,6496724,14560,6579,3138,4294967285,4294967210,4294967243,10536,6561,11446,125,253,4294967180,13265,4294962521,9260,451,2,108,4294966703,4294966703,4294966703
725382946,6468052,6497877,14578,6570,3148,4294967228,4294967263,4294967190,10617,6525,11430,171,247,4294967178,13240,4294962568,9188,503,4294967284,45,4294966722,4294966722,4294966722
725388956,6466717,6498134,14537,6629,3220,4294967160,17,4294967149,10642,6453,11325,204,233,4294967177,13152,4294962609,9059,409,101,19,4294966714,4294966714,4294966714
725394960,6467361,6500725,14503,6645,3291,4294967070,67,4294967178,10683,6499,11400,226,222,4294967158,13184,4294962675,8901,226,210,4294967285,4294966712,4294966712,4294966712
725400954,6468320,6503653,14537,6516,3177,4294967071,228,4294967146,10571,6507,11386,116,173,4294967118,13148,4294962685,8786,4294967286,395,30,4294966718,4294966718,4294966718
725406956,6467104,6502861,14618,6517,3119,4294967049,358,4294967071,10630,6468,11306,4294967283,125,4294967115,13085,4294962759,8649,4294967065,487,41,4294966718,4294966718,4294966718
725412954,6467399,6504167,14577,6556,3092,4294966980,343,4294967035,10613,6450,11400,4294967218,63,4294967109,13195,4294962735,8497,4294966896,596,65,4294966717,4294966717,4294966717
725418948,6467858,6507418,14574,6546,3142,4294966940,361,4294967034,10625,6587,11360,4294967150,57,4294967142,13315,4294962775,8412,4294966806,686,79,4294966724,4294966724,4294966724
725424951,6465497,6509115,14500,6635,3191,4294966923,383,4294967080,10607,6569,11478,4294967142,93,4294967187,13389,4294962825,8550,4294966790,684,95,4294966719,4294966719,4294966719
725430951,6464599,6509994,14447,6570,3276,4294966937,255,4294967120,10582,6559,11544,6,51,4294967250,13491,4294962755,8630,4294966824,610,154,4294966717,4294966717,4294966717
725436958,6464856,6509907,14444,6641,3187,4294966988,180,4294967141,10582,6613,11565,176,57,12,13542,4294962788,8801,4294966996,348,203,4294966716,4294966716,4294966716
725442939,6464849,6507621,14527,6546,3281,4294967076,53,4294967132,10591,6610,11700,296,83,87,13698,4294962762,8881,4294967142,86,269,4294966728,4294966728,4294966728
725448951,6464327,6504371,14541,6630,3303,4294967189,4294967257,4294967108,10654,6604,11709,424,140,115,13795,4294962676,8913,65,4294967107,340,4294966717,4294966717,4294966717
725454955,6465037,6503524,14556,6719,3216,4294967188,4294967130,4294967123,10659,6576,11774,571,164,165,13838,4294962751,8821,272,4294966905,370,4294966715,4294966715,4294966715
725460948,6465720,6504263,14621,6600,3180,4294967248,4294967139,4294967126,10625,6546,11787,666,201,158,13864,4294962711,8743,487,4294966774,425,4294966722,4294966722,4294966722
725466946,6464499,6502605,14647,6681,3295,4294967239,4294967127,4294967152,10650,6566,11721,681,203,143,13876,4294962696,8646,685,4294966749,450,4294966717,4294966717,4294966717
725472952,6465097,6503281,14631,6608,3273,4294967244,4294967003,4294967145,10667,6625,11685,635,204,161,13913,4294962769,8433,810,4294966831,468,4294966716,4294966716,4294966716
725478953,6465110,6504389,14641,6594,3275,4294967258,4294966817,4294967163,10673,6508,11725,565,244,108,13935,4294962809,8366,868,4294966997,439,4294966718,4294966718,4294966718
725484948,6464109,6503511,14599,6475,3241,11,4294966634,4294967198,10753,6507,11634,472,226,58,13954,4294962744,8466,898,4294967210,400,4294966718,4294966718,4294966718
725490952,6465155,6504258,14583,6472,3323,6,4294966550,4294967247,10742,6551,11446,366,237,35,13950,4294962735,8474,810,110,396,4294966716,4294966716,4294966716
725496941,6466183,6505071,14620,6430,3401,120,4294966627,4294967282,10776,6596,11442,223,250,4294967268,13823,4294962716,8496,614,190,368,4294966727,4294966727,4294966727
725502952,6464898,6500749,14694,6480,3365,160,4294966752,2,10730,6597,11439,96,282,4294967241,13745,4294962740,8491,415,200,354,4294966717,4294966717,4294966717
725508954,6463921,6498149,14730,6547,3361,164,4294966877,5,10693,6640,11388,4294967263,276,4294967209,13672,4294962725,8571,240,289,288,4294966720,4294966720,4294966720
725514961,6464387,6498307,14712,6494,3388,171,4294967047,30,10713,6639,11395,4294967163,281,4294967204,13543,4294962730,8671,86,355,238,4294966717,4294966717,4294966717
725520940,6465910,6496611,14659,6640,3386,143,4294967187,10,10606,6667,11327,4294967165,234,4294967168,13362,4294962767,8629,4,414,223,4294966727,4294966727,4294966727
725526941,6466277,6493361,14689,6534,3330,72,5,48,10607,6671,11260,4294967134,233,4294967162,13383,4294962855,8668,4294967200,400,202,4294966724,4294966724,4294966724
725532965,6466688,6494002,14554,6552,3242,16,21,67,10616,6692,11229,4294967120,234,4294967169,13330,4294962832,8843,4294967113,480,242,4294966709,4294966709,4294966709
725538956,6467149,6495499,14505,6554,3366,7,51,101,10589,6656,11322,4294967195,243,4294967186,13269,4294962756,8939,4294967084,464,254,4294966718,4294966718,4294966718
725544939,6466545,6494494,14456,6631,3342,4294967254,66,127,10543,6674,11222,4294967273,221,4294967208,13188,4294962631,9015,4294967123,455,262,4294966728,4294966728,4294966728
725550931,6466099,6494084,14431,6602,3315,4294967172,4294967293,124,10557,6563,11268,43,199,4294967243,13177,4294962517,9225,4294967222,324,199,4294966732,4294966732,4294966732
725556941,6467053,6495955,14405,6471,3234,4294967181,24,59,10513,6523,11201,84,185,4294967252,13155,4294962354,9334,17,236,139,4294966725,4294966725,4294966725
725562955,6466930,6495925,14488,6524,3338,4294967165,4294967287,4294967256,10548,6525,11217,87,199,4294967259,13097,4294962320,9253,85,205,75,4294966716,4294966716,4294966716
725568947,6465965,6496668,14374,6694,3280,4294967083,4294967287,4294967220,10655,6432,11246,43,188,4294967282,13060,4294962340,9064,68,179,10,4294966721,4294966721,4294966721
725574966,6467022,6501787,14417,6432,3153,4294967009,4294967291,4294967217,10593,6442,11220,37,193,4294967276,12957,4294962387,8798,4294967294,242,4294967232,4294966711,4294966711,4294966711
725580950,6466730,6502571,14398,6555,3136,4294967036,257,4294967153,10605,6388,11330,28,189,4294967287,12985,4294962451,8681,4294967173,266,4294967230,4294966719,4294966719,4294966719
725586953,6465989,6501918,14528,6533,3262,4294967020,366,4294967106,10585,6398,11362,52,192,21,13053,4294962540,8581,4294967089,413,4294967213,4294966716,4294966716,4294966716
725592945,6466109,6502876,14566,6586,3167,4294966956,434,4294967050,10616,6421,11433,78,202,25,13161,4294962557,8527,4294967053,485,4294967243,4294966721,4294966721,4294966721
725598956,6467107,6505839,14516,6637,3191,4294966953,549,4294967023,10653,6427,11492,109,191,50,13272,4294962622,8480,4294967040,563,16,4294966719,4294966719,4294966719
725604940,6466734,6507672,14444,6612,3261,4294966959,582,4294967012,10691,6424,11537,179,162,76,13433,4294962645,8550,4294966992,509,81,4294966727,4294966727,4294966727
725610949,6466372,6509967,14488,6605,3231,4294967051,625,4294966980,10657,6467,11485,204,156,105,13481,4294962675,8661,4294967016,403,157,4294966721,4294966721,4294966721
725616961,6466926,6511250,14543,6545,3257,4294967095,498,4294966971,10699,6489,11619,265,150,132,13657,4294962632,8730,4294967119,279,240,4294966713,4294966713,4294966713
725622964,6465744,6509987,14539,6574,3245,4294967165,314,4294967029,10657,6480,11647,351,212,148,13767,4294962581,8625,4294967255,116,339,4294966710,4294966710,4294966710
725628948,6464252,6508003,14547,6623,3165,4294967218,115,4294967036,10712,6479,11614,436,229,183,13897,4294962632,8502,216,18,431,4294966720,4294966720,4294966720
725634955,6464475,6507714,14654,6640,3151,4294967235,4294967285,4294967077,10733,6471,11616,517,279,182,13979,4294962601,8529,543,4294967262,546,4294966717,4294966717,4294966717
725640950,6465537,6506463,14584,6585,3091,4294967259,4294967250,4294967092,10748,6541,11679,574,317,183,13974,4294962649,8499,848,4294967244,610,4294966722,4294966722,4294966722
725646959,6466257,6505358,14606,6580,3196,4294967258,4294967171,4294967130,10743,6541,11729,575,345,179,14045,4294962712,8497,1043,4294967270,698,4294966713,4294966713,4294966713
725652971,6469375,6507573,14601,6561,3302,11,4294967046,4294967165,10730,6544,11708,564,369,166,13999,4294962612,8511,1151,18,766,4294966705,4294966705,4294966705
725658943,6471077,6511451,14656,6570,3311,62,4294966883,4294967189,10732,6526,11673,527,369,149,13978,4294962589,8644,1187,85,793,4294966721,4294966721,4294966721
725664985,6472022,6512102,14632,6521,3306,61,4294966689,4294967208,10672,6571,11579,491,354,116,13937,4294962562,8648,1168,191,788,4294966695,4294966695,4294966695
725670960,6467081,6506167,14599,6516,3367,63,4294966556,4294967229,10678,6595,11447,442,332,109,13913,4294962592,8670,1118,327,732,4294966714,4294966714,4294966714
725676954,6463759,6500374,14595,6575,3404,53,4294966399,4294967232,10678,6569,11440,361,332,73,13833,4294962688,8591,977,479,696,4294966717,4294966717,4294966717
725682952,6460936,6499196,14687,6507,3318,4294967284,4294966310,4294967263,10660,6538,11552,300,307,46,13779,4294962707,8505,894,584,654,4294966716,4294966716,4294966716
725688946,6460846,6500818,14586,6541,3263,4294967264,4294966288,35,10672,6524,11593,234,276,17,13691,4294962854,8468,781,727,619,4294966724,4294966724,4294966724
725694948,6463515,6503161,14692,6458,3233,11,4294966449,28,10638,6578,11534,226,268,4,13511,4294962803,8601,668,751,616,4294966719,4294966719,4294966719
725700945,6464565,6504136,14715,6501,3278,34,4294966554,4294967287,10628,6542,11231,200,195,4294967227,13446,4294962731,8720,566,644,532,4294966723,4294966723,4294966723
725706945,6463807,6499811,14812,6536,3247,37,4294966695,24,10692,6669,11195,42,249,4294967184,13363,4294962612,8860,442,581,449,4294966722,4294966722,4294966722
725712961,6464845,6497952,14784,6529,3190,42,4294966926,1,10601,6557,11347,4294967146,290,4294967179,13279,4294962598,8875,367,486,320,4294966713,4294966713,4294966713
725718957,6466291,6496303,14611,6563,3354,33,4294967123,13,10552,6606,11202,4294967200,369,4294967136,13297,4294962684,8819,301,410,192,4294966714,4294966714,4294966714
725724969,6465743,6492912,14591,6551,3415,15,4294967199,13,10551,6707,11070,4294967217,393,4294967122,13207,4294962629,9097,230,295,120,4294966706,4294966706,4294966706
725730953,6465795,6493554,14495,6591,3488,4294967245,4294967169,3,10562,6687,11092,4294967220,378,4294967129,13074,4294962651,9084,173,166,35,4294966721,4294966721,4294966721
725736973,6466466,6494693,14490,6611,3549,4294967215,4294967201,4294967277,10539,6564,11333,4294967292,350,4294967145,13037,4294962569,8993,84,123,4294967260,4294966706,4294966706,4294966706
725742949,6467074,6495069,14376,6637,3465,4294967126,4294967203,4294967275,10516,6519,11530,148,254,4294967190,12995,4294962547,9080,38,82,4294967214,4294966719,4294966719,4294966719
725748943,6466049,6494420,14392,6674,3484,4294967058,4294967195,4294967253,10562,6488,11593,308,131,4294967186,12949,4294962508,9243,46,4294967262,4294967182,4294966725,4294966725,4294966725
725754962,6466966,6496367,14369,6572,3344,4294967053,4294967200,4294967229,10526,6464,11536,361,40,4294967227,12920,4294962466,9362,114,4294967225,4294967189,4294966713,4294966713,4294966713
725760944,6467976,6497411,14426,6568,3199,4294967088,4294967286,4294967163,10598,6387,11407,287,38,4294967259,12876,4294962424,9336,228,4294967228,4294967150,4294966724,4294966724,4294966724
725766952,6467050,6497954,14406,6743,3233,4294967124,83,4294967149,10673,6352,11312,150,90,4294967263,12916,4294962526,9076,254,5,4294967181,4294966718,4294966718,4294966718
725772941,6467763,6502574,14547,6469,3038,4294967096,133,4294967164,10680,6318,11175,4294967281,30,4294967234,12828,4294962606,8913,178,181,4294967191,4294966726,4294966726,4294966726
725778945,6468652,6504568,14523,6602,3008,4294967158,408,4294967121,10646,6363,11169,4294967141,34,4294967200,12905,4294962645,8637,25,326,4294967235,4294966722,4294966722,4294966722
725784962,6467508,6504111,14464,6596,3117,4294967173,546,4294967079,10660,6412,11263,4294967054,50,4294967199,12947,4294962715,8550,4294967103,561,4294967292,4294966711,4294966711,4294966711
725790940,6466945,6505889,14531,6505,3140,4294967141,644,4294967038,10663,6346,11307,4294967017,49,4294967160,13063,4294962767,8598,4294966925,650,25,4294966727,4294966727,4294966727
725796939,6467910,6510221,14429,6427,3182,4294967121,744,4294966960,10574,6427,11450,4294967044,24,4294967150,13221,4294962663,8714,4294966788,615,59,4294966728,4294966728,4294966728
725802945,6467491,6512402,14404,6452,3081,4294967174,872,4294966901,10520,6450,11523,4294967196,4294967286,4294967185,13352,4294962681,8795,4294966781,543,2,4294966721,4294966721,4294966721
725808945,6466982,6512423,14380,6510,3099,4294967194,933,4294966865,10500,6480,11570,129,4294967179,4294967239,13366,4294962741,8850,4294966720,128,80,4294966722,4294966722,4294966722
725814958,6467080,6512751,14357,6514,3081,4294967174,946,4294966868,10467,6543,11673,393,4294967151,17,13684,4294962672,8825,4294966901,4294967136,175,4294966718,4294966718,4294966718
725820939,6467601,6513442,14312,6577,3225,4294967202,887,4294966893,10460,6550,11639,685,4294967140,114,13909,4294962671,8695,4294967178,4294966956,295,4294966727,4294966727,4294966727
725826938,6466820,6511310,14337,6661,3197,4294967234,688,4294966960,10595,6583,11609,888,4294967208,156,14074,4294962668,8559,238,4294966825,403,4294966725,4294966725,4294966725
725832962,6467317,6509307,14361,6706,3340,18,450,4294967028,10618,6532,11512,1005,23,223,14148,4294962632,8528,619,4294966782,530,4294966709,4294966709,4294966709
725838945,6468825,6508532,14448,6700,3352,121,88,4294967076,10666,6557,11534,1038,160,255,14239,4294962532,8505,1011,4294966807,636,4294966724,4294966724,4294966724
725844963,6467778,6506570,14515,6732,3378,180,4294966971,4294967136,10732,6552,11597,1025,276,245,14210,4294962505,8511,1281,4294966842,661,4294966710,4294966710,4294966710
725850953,6467221,6506420,14490,6743,3284,238,4294966508,4294967213,10772,6528,11614,961,327,257,14154,4294962521,8521,1361,4294966894,648,4294966716,4294966716,4294966716
725856967,6468324,6508463,14664,6623,3248,299,4294966162,4294967246,10782,6549,11665,852,311,207,14056,4294962490,8488,1343,4294966947,611,4294966709,4294966709,4294966709
