t_us,ecg_corr,ax0,ay0,az0,gx0,gy0,gz0,ax1,ay1,az1,gx1,gy1,gz1,ax2,ay2,az2,gx2,gy2,gz2
178377177,4294967032,2938,4294950989,1384,378,215,263,794,16971,436,4294967275,4294967176,4294967042,544,14933,7443,138,241,52
178383177,4294967266,3005,4294951003,1404,389,241,256,797,17011,549,4294967273,4294967198,4294967027,593,14924,7462,159,250,38
178389177,122,2939,4294951041,1431,393,275,237,754,16975,571,4294967268,4294967221,4294967056,607,14948,7442,175,259,32
178395177,4294967165,2973,4294951097,1375,413,285,258,729,16949,585,4294967234,4294967216,4294967094,597,14937,7328,201,267,60
178401177,4294967215,2938,4294951165,1571,493,291,250,743,16828,458,4294967157,4294967183,4294967184,574,14945,7512,212,280,37
178407177,188,2941,4294951169,1471,526,257,271,797,16829,519,4294967047,4294967177,4294967169,553,14975,7428,199,252,25
178413177,4294967253,2933,4294951225,1403,532,262,312,791,16832,446,4294966980,4294967199,4294967137,529,14912,7434,183,262,31
178419177,4294967128,2904,4294951206,1439,570,248,299,801,16780,413,4294966888,4294967211,4294967129,531,14980,7460,172,262,24
178425177,106,2907,4294951199,1434,561,235,351,812,16747,424,4294966815,4294967207,4294967140,545,14992,7458,162,257,14
178431177,77,2845,4294951148,1461,548,212,350,840,16650,350,4294966781,4294967210,4294967172,534,14982,7417,160,249,20
178437177,4294967108,2820,4294951106,1397,520,220,352,850,16577,487,4294966792,4294967205,4294967139,528,15007,7435,147,241,21
178443177,53,2869,4294951017,1462,504,223,357,784,16626,465,4294966844,4294967201,4294967109,544,15020,7416,148,250,13
178449177,92,2868,4294951059,1391,487,242,350,769,16626,495,4294966944,4294967165,4294967087,524,14980,7331,130,233,11
178455177,4294967025,2915,4294950987,1494,448,239,334,779,16626,468,4294967081,4294967102,4294967080,575,15021,7393,124,233,17
178461177,4294967057,2936,4294951020,1542,400,258,321,793,16642,409,4294967166,4294967080,4294967048,578,15019,7453,141,243,31
178467177,9,2949,4294951035,1598,392,261,296,775,16759,426,13,4294967009,4294967044,595,15046,7414,126,243,24
178471177,4294967207,2989,4294951012,1523,380,253,273,802,16829,407,87,4294967016,4294967039,564,14987,7375,133,254,11
178477177,4294967025,2985,4294951047,1612,361,271,296,785,16871,430,159,4294967024,4294967049,609,14983,7401,125,267,14
178483177,4294967262,2960,4294951113,1573,374,277,281,779,16888,425,205,4294967047,4294967062,544,14989,7407,146,246,17
178489177,94,2991,4294951147,1550,412,258,275,801,16867,364,179,4294967029,4294967088,572,14988,7507,140,245,16
178493177,4294967246,2928,4294951155,1483,469,283,300,818,16885,315,142,4294967018,4294967099,603,14988,7456,131,250,1
178499177,4294967081,2901,4294951121,1488,494,289,311,775,16886,329,40,4294967037,4294967106,586,14967,7489,153,242,15
178505177,4294967053,2865,4294951151,1413,531,283,334,798,16861,314,4294967211,4294967045,4294967101,559,14994,7401,149,262,25
178511177,4294966510,2885,4294951121,1483,567,245,358,814,16826,406,4294967113,4294967068,4294967121,532,14943,7393,169,263,11
178517177,4294965888,2884,4294951104,1487,577,225,348,834,16823,460,4294966958,4294967074,4294967109,543,14938,7460,167,270,20
178523177,4294966415,2902,4294951033,1431,603,226,338,836,16727,343,4294966884,4294967119,4294967111,577,14960,7420,183,270,2
178529177,276,2875,4294951084,1461,579,240,329,834,16624,420,4294966811,4294967109,4294967112,616,15009,7398,168,231,20
178535177,1153,2880,4294951063,1470,566,232,354,850,16574,416,4294966824,4294967101,4294967081,535,14963,7441,177,256,4294967291
178541177,1712,2945,4294951065,1534,558,178,350,856,16588,358,4294966855,4294967094,4294967031,557,15007,7404,161,245,25
178547177,1727,2928,4294951123,1507,574,179,338,778,16667,292,4294966923,4294967090,4294967025,569,15012,7437,148,211,9
178553177,775,2952,4294951167,1521,605,153,326,774,16696,265,4294967022,4294967065,4294967007,558,14943,7447,136,204,8
178559177,4294966952,2974,4294951144,1435,623,165,338,768,16726,366,4294967121,4294967058,4294967058,529,15003,7332,145,226,4294967291
178565177,4294966518,2914,4294951087,1466,580,211,343,797,16749,205,4294967213,4294967064,4294967071,556,14988,7396,128,207,7
178571177,4294966112,2870,4294951088,1472,565,225,364,822,16743,350,39,4294967075,4294967057,520,14985,7426,125,199,11
178577177,4294965888,2874,4294951054,1442,531,236,375,794,16796,306,77,4294967053,4294967065,521,14969,7400,117,189,17
178583177,4294966400,2872,4294951060,1444,497,256,357,806,16840,531,114,4294967048,4294967081,629,14968,7424,121,217,18
178589177,4294966921,2817,4294951046,1468,439,245,306,819,16840,411,104,4294967109,4294967115,582,14926,7399,98,253,31
178595177,4294966979,2810,4294951053,1535,350,251,277,762,16834,445,10,4294967123,4294967132,622,14914,7431,67,236,11
178601177,4294967269,2877,4294950940,1436,284,222,269,772,16752,427,4294967214,4294967137,4294967140,584,14870,7485,80,248,14
178607177,351,2953,4294950943,1466,274,249,243,747,16767,461,4294967138,4294967144,4294967158,607,14879,7495,65,278,4294967283
178613177,170,2903,4294950992,1478,260,240,219,709,16801,346,4294967050,4294967117,4294967177,601,14863,7426,70,277,10
178619177,4294967293,2949,4294951014,1451,272,272,216,805,16730,294,4294966971,4294967141,4294967145,596,14960,7376,98,312,4294967284
178625177,160,2918,4294951026,1386,312,280,231,751,16702,319,4294966872,4294967181,4294967125,491,14955,7444,97,307,8
178631177,6,2919,4294951125,1503,353,305,235,764,16708,390,4294966824,4294967214,4294967139,553,15015,7298,118,329,7
178637177,4294966993,2923,4294951170,1371,384,307,242,767,16588,448,4294966794,4294967217,4294967139,517,15064,7353,140,318,19
178643177,4294967221,2892,4294951129,1381,441,287,267,784,16594,400,4294966833,4294967177,4294967125,528,15080,7391,139,335,32
178649177,21,2865,4294951173,1517,464,271,273,803,16680,470,4294966923,4294967145,4294967130,541,15095,7360,151,309,10
178655177,4294967010,2811,4294951164,1451,460,254,276,767,16718,458,4294967050,4294967102,4294967140,589,15054,7336,173,286,11
178661177,4294967047,2791,4294951126,1344,479,228,317,792,16726,511,4294967149,4294967095,4294967125,566,15064,7354,188,290,4294967287
178667177,4294967274,2829,4294951096,1388,480,252,330,811,16774,523,4294967282,4294967126,4294967125,603,15074,7437,169,270,16
178673177,4294967088,2870,4294951101,1479,482,249,343,784,16816,499,56,4294967104,4294967138,576,15092,7435,184,251,10
178679177,4294966957,2908,4294951026,1575,479,269,348,758,16789,545,145,4294967109,4294967161,551,15047,7467,184,237,34
178685177,4294967274,2922,4294950981,1557,449,261,328,757,16790,462,140,4294967081,4294967163,567,15001,7515,155,244,15
178691177,4294967238,2911,4294950954,1497,424,261,317,753,16831,527,113,4294967086,4294967204,573,15002,7518,155,246,26
178697177,4294967015,2920,4294950982,1528,426,257,315,751,16856,391,54,4294967095,4294967206,558,14993,7459,135,232,28
178703177,4294967267,2928,4294950970,1522,423,226,296,775,16833,527,4294967243,4294967100,4294967207,556,15010,7430,140,236,28
178709177,81,2880,4294950988,1559,455,247,314,757,16785,523,4294967171,4294967133,4294967234,570,15003,7396,123,241,38
178715177,4294967129,2861,4294951046,1689,489,251,295,757,16801,477,4294967060,4294967151,4294967250,455,14999,7366,100,211,32
178721177,4294967186,2868,4294951068,1557,504,236,300,769,16804,376,4294966973,4294967126,4294967234,483,15001,7382,102,231,19
178727177,149,2936,4294951123,1527,534,223,292,784,16750,456,4294966932,4294967124,4294967227,508,14997,7294,101,210,43
178733177,31,2916,4294951089,1580,573,195,273,772,16718,359,4294966918,4294967126,4294967232,505,14971,7382,123,248,46
178739177,4294967226,2840,4294951070,1629,602,198,257,754,16740,380,4294966931,4294967157,4294967206,517,14977,7354,116,255,38
178745177,196,2898,4294951105,1726,587,170,278,728,16705,364,4294966985,4294967161,4294967215,567,14974,7369,137,245,24
178751177,103,2851,4294951052,1609,603,147,287,741,16624,351,4294967052,4294967159,4294967217,563,14952,7431,121,255,37
178757177,4294967156,2840,4294951086,1579,608,130,286,747,16660,349,4294967141,4294967118,4294967234,539,14963,7389,149,219,21
178763177,96,2867,4294951091,1515,644,117,291,727,16667,401,4294967218,4294967096,4294967229,591,14966,7436,175,238,27
178769177,195,2887,4294951102,1454,646,113,312,793,16716,405,8,4294967091,4294967198,625,14929,7459,191,259,17
178773177,4294967292,2881,4294951049,1417,632,122,305,798,16743,333,21,4294967088,4294967208,604,14924,7462,202,249,17
178779177,4294967172,2888,4294951040,1445,641,129,318,742,16762,496,45,4294967127,4294967202,586,14937,7430,213,262,35
178785177,163,2870,4294951056,1408,620,151,292,787,16730,446,36,4294967114,4294967205,608,14930,7466,186,272,38
178789177,159,2831,4294951052,1346,630,172,282,820,16701,476,37,4294967116,4294967223,570,14936,7449,194,273,46
178793177,4294967251,2879,4294950971,1401,608,171,293,781,16765,505,4294967294,4294967084,4294967232,591,14943,7464,205,289,31
178799177,4294967115,2930,4294951001,1392,572,186,264,779,16799,412,4294967253,4294967097,4294967236,580,14992,7429,197,273,28
178805177,32,2943,4294951013,1415,513,193,255,803,16826,460,4294967210,4294967107,4294967220,506,15002,7424,197,275,20
178811177,4294967232,2936,4294951083,1380,480,188,252,763,16777,470,4294967133,4294967121,4294967223,504,14988,7436,189,263,20
178817177,4294967014,2941,4294951132,1424,454,180,245,735,16794,486,4294967080,4294967138,4294967224,580,14979,7429,166,219,18
178823177,4294967184,2942,4294951168,1505,491,188,261,740,16766,428,4294967010,4294967158,4294967208,588,15023,7435,133,215,12
178829177,4294967292,2923,4294951158,1459,510,202,271,735,16730,383,4294966965,4294967154,4294967195,606,15048,7407,149,221,19
178835177,4294967011,2860,4294951156,1492,567,202,302,731,16726,342,4294966969,4294967131,4294967159,563,15029,7329,156,241,4
178841177,4294967100,2800,4294951182,1486,590,217,311,736,16701,410,4294966971,4294967136,4294967167,584,14978,7375,139,232,4294967293
178847177,42,2823,4294951156,1483,622,191,323,805,16678,384,4294966971,4294967167,4294967167,568,14967,7362,122,247,11
178853177,4294967110,2811,4294951108,1408,604,193,317,774,16668,443,4294967025,4294967181,4294967152,577,14961,7438,112,271,10
178859177,4294966991,2828,4294951016,1531,580,177,324,789,16685,451,4294967064,4294967159,4294967139,601,14967,7412,111,260,13
178865177,33,2860,4294951053,1522,523,163,298,784,16707,501,4294967128,4294967109,4294967143,561,14942,7499,111,256,4
178871177,4294967291,2920,4294951062,1584,456,150,280,791,16716,503,4294967200,4294967098,4294967146,552,14969,7406,116,247,4294967274
178877177,4294967046,2885,4294951011,1579,416,157,275,772,16778,430,4294967234,4294967101,4294967149,543,14932,7422,144,228,4294967287
178883177,4294967260,2869,4294950954,1571,372,160,257,709,16737,426,4294967283,4294967124,4294967148,607,14966,7451,165,252,4294967283
178889177,41,2866,4294950943,1565,365,142,245,732,16772,509,4294967294,4294967134,4294967154,582,14964,7388,150,257,4294967286
178895177,4294967032,2824,4294951047,1548,364,157,232,729,16781,443,4294967282,4294967113,4294967160,553,14933,7407,158,237,4294967280
178901177,4294967161,2868,4294951024,1597,385,179,211,718,16796,467,4294967253,4294967098,4294967191,537,14978,7371,143,244,4294967286
178907177,94,2932,4294951052,1481,407,184,212,776,16777,417,4294967199,4294967112,4294967206,591,14987,7413,148,245,4294967281
178913177,4294967146,2917,4294951055,1454,454,190,202,751,16786,451,4294967173,4294967136,4294967221,605,14980,7406,145,278,4294967285
178919177,4294967036,2884,4294951097,1414,477,198,229,782,16811,419,4294967113,4294967153,4294967212,544,14942,7337,129,275,4294967295
178925177,32,2862,4294951100,1481,516,190,223,767,16771,422,4294967090,4294967175,4294967216,559,14975,7382,115,266,3
178931177,4294967294,2921,4294951083,1398,542,165,218,791,16788,373,4294967041,4294967177,4294967207,550,14983,7402,83,263,4294967290
178937177,4294967037,2882,4294951165,1435,552,162,224,783,16723,481,4294967029,4294967161,4294967221,504,14942,7364,92,259,0
178943177,4294967231,2857,4294951128,1454,533,134,205,798,16735,432,4294967031,4294967164,4294967237,514,14907,7341,61,245,4294967290
178949177,4294967294,2905,4294951103,1512,519,105,218,801,16720,334,4294967058,4294967124,4294967271,533,14966,7420,66,249,4
178955177,4294966955,2886,4294951060,1392,525,119,242,804,16750,389,4294967125,4294967126,4294967260,542,14942,7410,52,226,19
178961177,4294966997,2850,4294951059,1516,514,139,231,770,16810,331,4294967185,4294967141,4294967284,505,14996,7405,87,248,2
178967177,4294967250,2864,4294951097,1297,543,165,244,795,16789,445,4294967229,4294967139,4294967269,490,14957,7434,72,228,4294967291
178973177,4294967106,2849,4294951078,1512,568,182,249,851,16802,420,4294967270,4294967164,4294967291,496,15023,7476,98,253,4
178979177,4294967113,2929,4294951072,1515,586,195,248,743,16779,340,4294967287,4294967135,17,532,14981,7344,108,259,28
178985177,187,2888,4294951062,1414,551,216,247,779,16716,458,29,4294967116,14,558,15008,7366,96,276,25
178989177,200,2871,4294951119,1449,519,244,246,761,16678,373,17,4294967113,30,515,15000,7367,126,283,33
178993177,12,2802,4294951079,1422,488,227,226,778,16681,462,27,4294967120,4294967286,558,14959,7396,151,274,44
178997177,4294967170,2836,4294951053,1390,437,212,226,747,16697,353,32,4294967108,4294967279,532,14988,7363,149,280,15
179003177,77,2836,4294951045,1437,322,196,219,713,16745,462,4294967291,4294967123,4294967268,571,15029,7382,161,265,52
179009177,125,2860,4294951075,1420,287,238,201,714,16739,443,4294967247,4294967151,4294967287,529,14984,7383,189,255,48
179015177,4294967078,2865,4294951088,1524,241,216,180,800,16789,452,4294967200,4294967136,4294967275,553,15069,7299,184,230,26
179021177,4294967138,2905,4294951005,1621,202,231,177,782,16712,357,4294967147,4294967159,4294967273,556,15038,7404,186,224,64
179027177,66,2956,4294950996,1558,203,257,171,795,16714,492,4294967125,4294967155,4294967274,508,15012,7459,186,209,43
179033177,4294967137,2909,4294951052,1497,207,245,169,832,16741,479,4294967110,4294967152,4294967295,553,14974,7413,163,214,50
179039177,4294967045,2891,4294951059,1504,253,223,190,783,16694,488,4294967117,4294967166,2,570,14964,7392,141,217,50
179045177,37,2839,4294951124,1522,303,232,189,793,16737,452,4294967141,4294967149,4294967279,530,14992,7402,149,203,41
179051177,4294967223,2896,4294951112,1536,328,236,199,794,16745,505,4294967143,4294967141,4294967278,496,14996,7417,134,202,24
179057177,4294966921,2865,4294951169,1569,390,224,216,766,16750,484,4294967167,4294967126,4294967261,560,15009,7374,129,192,36
179063177,4294967178,2824,4294951117,1482,460,208,230,762,16741,387,4294967204,4294967115,4294967225,561,14957,7476,120,189,48
179069177,22,2840,4294951156,1458,524,208,243,751,16731,500,4294967214,4294967103,4294967240,540,15031,7410,88,176,48
179075177,4294967016,2843,4294951182,1465,558,221,280,727,16723,496,4294967224,4294967130,4294967215,562,14966,7404,76,185,42
179081177,4294967122,2808,4294951140,1515,573,223,308,794,16699,564,4294967218,4294967127,4294967206,552,15001,7375,79,179,26
179087177,86,2841,4294951136,1471,586,215,315,762,16723,480,4294967158,4294967103,4294967188,598,14967,7416,74,196,40
179093177,4294967220,2872,4294951070,1589,604,173,317,749,16675,501,4294967117,4294967123,4294967187,574,15011,7409,93,212,27
179099177,4294967143,2986,4294951120,1598,623,145,316,816,16671,500,4294967058,4294967107,4294967186,557,14998,7441,109,218,26
179105177,141,2976,4294951146,1592,623,106,331,783,16681,462,4294967050,4294967121,4294967203,582,14991,7381,129,226,25
179111177,4294967291,3035,4294951083,1706,609,102,320,788,16660,452,4294967048,4294967122,4294967182,589,14976,7425,136,211,16
179117177,4294967061,3035,4294951045,1627,625,97,296,738,16748,453,4294967052,4294967151,4294967145,612,14981,7436,127,204,26
179123177,29,2970,4294951091,1618,632,95,324,772,16782,421,4294967085,4294967114,4294967132,528,14972,7454,150,201,24
179129177,90,2922,4294951064,1488,636,103,340,760,16767,463,4294967106,4294967098,4294967154,583,14983,7415,164,193,32
179135177,4294967093,2891,4294951132,1479,641,123,316,815,16747,496,4294967138,4294967092,4294967156,564,14985,7468,169,191,6
179141177,4294967221,2858,4294951096,1415,639,124,346,801,16740,466,4294967159,4294967088,4294967147,559,14968,7469,158,209,17
179147177,183,2846,4294951076,1570,612,139,345,835,16761,473,4294967167,4294967100,4294967128,540,15010,7378,143,223,4294967292
179153177,4294967288,2908,4294951083,1456,571,124,313,780,16748,452,4294967147,4294967132,4294967145,569,14955,7467,153,230,1
179159177,4294966999,2885,4294951048,1473,556,128,313,761,16711,471,4294967135,4294967127,4294967134,573,14995,7443,144,220,14
179165177,4294966894,2885,4294951048,1477,539,115,313,783,16694,500,4294967109,4294967128,4294967154,543,14957,7519,136,231,8
179171177,4294966245,2820,4294951052,1464,513,145,304,743,16736,392,4294967082,4294967123,4294967166,601,14971,7412,118,221,10
179177177,4294965680,2832,4294951022,1469,504,158,290,747,16722,455,4294967092,4294967120,4294967173,594,14959,7408,96,215,1
179183177,4294966470,2857,4294951047,1495,501,147,289,787,16739,445,4294967105,4294967116,4294967160,565,14942,7379,84,202,20
179189177,521,2881,4294951008,1389,509,114,264,859,16711,398,4294967094,4294967129,4294967163,562,15007,7391,81,213,20
179195177,1453,2895,4294950999,1478,512,120,261,800,16728,439,4294967081,4294967128,4294967161,539,14955,7416,84,232,4
179201177,1715,2976,4294951033,1452,520,145,262,779,16672,365,4294967085,4294967142,4294967157,546,14958,7394,104,252,0
179207177,1716,2986,4294951077,1426,527,135,246,745,16720,425,4294967098,4294967160,4294967159,543,14952,7479,80,258,2
179213177,597,2958,4294951116,1435,572,132,264,789,16712,356,4294967144,4294967123,4294967173,543,15010,7422,90,281,9
179219177,4294966828,2940,4294951131,1373,609,123,264,803,16704,425,4294967188,4294967123,4294967181,482,14977,7367,96,249,1
179225177,4294966429,2883,4294951133,1415,622,120,275,788,16772,452,4294967208,4294967154,4294967160,548,14914,7486,109,259,4294967282
179231177,4294966108,2863,4294951182,1394,626,136,297,838,16784,449,4294967220,4294967142,4294967178,545,14956,7440,108,253,8
179237177,4294966039,2859,4294951193,1444,606,145,307,816,16789,435,4294967235,4294967150,4294967194,565,14944,7435,114,289,4294967281
179243177,4294966610,2819,4294951127,1435,568,135,338,798,16817,452,4294967259,4294967124,4294967200,514,14973,7417,118,278,4294967280
179249177,4294967053,2781,4294951045,1448,516,158,312,762,16782,503,4294967264,4294967124,4294967177,553,14929,7432,119,274,16
179255177,4294967020,2788,4294950989,1426,471,174,316,774,16761,518,4294967209,4294967129,4294967153,503,14933,7403,141,294,2
179261177,4294967232,2832,4294950947,1412,382,205,274,746,16804,462,4294967161,4294967144,4294967170,535,14931,7478,158,294,4294967295
179267177,221,2880,4294950906,1478,339,200,246,766,16745,441,4294967103,4294967155,4294967190,531,14982,7405,172,308,29
179273177,4294967291,2849,4294950937,1535,300,245,230,762,16748,501,4294967091,4294967156,4294967207,513,14969,7441,163,316,2
179279177,4294967182,2870,4294951002,1550,286,224,220,726,16724,456,4294967067,4294967145,4294967210,544,14959,7446,168,291,8
179285177,112,2930,4294951070,1526,275,210,210,784,16731,366,4294967058,4294967149,4294967179,566,14991,7452,168,269,11
179291177,3,2947,4294951102,1409,332,220,195,746,16677,427,4294967062,4294967170,4294967169,534,14943,7437,160,264,4294967293
179297177,4294967035,2905,4294951153,1402,367,251,193,764,16678,395,4294967068,4294967191,4294967165,525,14938,7394,169,232,23
179303177,4294967257,2895,4294951227,1366,407,251,236,774,16661,503,4294967067,4294967199,4294967163,541,14946,7354,159,212,25
179309177,25,2796,4294951241,1317,440,285,244,754,16686,406,4294967108,4294967164,4294967123,533,14987,7439,150,212,13
179315177,4294967015,2736,4294951239,1224,459,309,269,718,16680,359,4294967149,4294967177,4294967111,548,14929,7520,149,194,22
179321177,4294967091,2751,4294951140,1171,431,333,295,742,16687,427,4294967184,4294967159,4294967124,573,14924,7460,125,210,37
179327177,40,2741,4294951138,1178,390,344,291,729,16744,509,4294967259,4294967162,4294967106,588,14884,7466,136,203,12
179333177,4294967128,2816,4294951121,1247,315,334,297,717,16853,535,21,4294967139,4294967121,517,14899,7439,137,212,12
179339177,4294966992,2894,4294951024,1309,210,333,277,721,16853,544,29,4294967128,4294967153,572,14880,7416,148,216,19
179345177,4294967247,2925,4294950981,1437,124,336,270,730,16753,491,41,4294967114,4294967169,582,14953,7412,142,228,25
179351177,4294967139,2901,4294950937,1442,68,342,267,770,16816,454,55,4294967103,4294967180,583,14995,7406,150,208,26
179357177,4294966896,2816,4294950875,1426,21,358,228,771,16832,493,39,4294967132,4294967181,557,15000,7424,182,211,2
179363177,4294967142,2824,4294950884,1437,14,375,254,782,16797,415,2,4294967131,4294967197,545,15010,7393,170,244,10
179369177,4294967292,2872,4294950888,1545,38,390,226,741,16740,324,4294967236,4294967142,4294967222,535,15016,7368,190,241,45
179375177,4294967063,2885,4294950968,1649,63,437,187,731,16724,351,4294967190,4294967153,4294967203,547,14988,7392,187,229,23
179381177,4294967224,2926,4294950991,1623,67,451,159,761,16714,383,4294967132,4294967156,4294967201,575,15014,7422,186,241,40
179387177,201,2917,4294950967,1634,99,408,118,745,16758,393,4294967057,4294967160,4294967174,507,15001,7448,171,246,19
179393177,4294967273,2983,4294951063,1632,155,354,126,763,16760,365,4294967038,4294967167,4294967189,567,15035,7424,190,235,29
179399177,4294967189,2977,4294951054,1605,219,320,134,731,16761,326,4294967034,4294967157,4294967188,546,15028,7454,165,227,19
179405177,186,2946,4294951138,1707,276,281,150,805,16750,465,4294967081,4294967153,4294967201,595,14992,7452,170,225,14
179411177,92,2962,4294951197,1616,360,288,175,789,16733,539,4294967121,4294967149,4294967197,549,14999,7431,158,237,28
179417177,4294967170,2966,4294951180,1622,440,267,208,769,16769,503,4294967187,4294967151,4294967177,519,14989,7464,157,243,4294967295
179423177,144,2968,4294951238,1590,502,239,234,773,16789,564,4294967203,4294967092,4294967200,547,15003,7411,139,256,31
179429177,197,2946,4294951257,1586,519,197,257,758,16781,507,4294967253,4294967116,4294967199,540,15026,7454,135,243,45
179435177,4294967173,2874,4294951181,1453,588,164,271,745,16818,518,4294967270,4294967101,4294967208,534,15004,7393,131,222,20
179441177,4294967295,2861,4294951133,1448,585,136,296,731,16806,542,4294967261,4294967116,4294967231,526,15051,7380,112,219,19
179447177,194,2784,4294951082,1374,595,146,289,735,16804,381,4294967251,4294967104,4294967240,557,14963,7325,113,218,23
179453177,4294967233,2748,4294951039,1431,576,155,281,734,16766,433,4294967212,4294967104,4294967247,516,15027,7353,108,211,33
179459177,4294967089,2748,4294951014,1454,535,176,283,731,16790,453,4294967142,4294967122,4294967244,520,15007,7296,123,186,43
179465177,56,2758,4294950953,1557,462,201,263,764,16707,458,4294967083,4294967119,4294967255,603,15013,7370,141,168,27
179471177,4294967210,2796,4294950876,1449,408,219,224,711,16718,467,4294967013,4294967161,4294967224,611,14971,7399,170,158,33
179477177,4294966998,2912,4294950845,1482,335,202,206,711,16667,483,4294966981,4294967196,4294967240,570,15002,7448,183,157,40
179483177,4294967272,2965,4294950846,1575,296,196,171,704,16670,529,4294966974,4294967201,4294967238,576,15002,7361,180,167,30
179489177,90,3007,4294950958,1486,292,217,157,695,16643,539,4294966990,4294967157,4294967203,557,15004,7447,191,161,17
179495177,4294967100,3002,4294951079,1455,352,222,174,730,16610,423,4294967020,4294967151,4294967185,577,14963,7461,184,169,22
179501177,4294967242,3064,4294951132,1512,421,192,174,790,16716,392,4294967085,4294967153,4294967127,589,14956,7441,193,156,12
179507177,198,3064,4294951219,1452,563,192,191,810,16749,479,4294967168,4294967147,4294967132,573,14943,7473,171,141,39
179513177,4294967210,3002,4294951305,1365,666,180,250,818,16671,505,4294967209,4294967158,4294967156,523,14957,7439,140,166,14
179519177,4294967117,2936,4294951325,1360,787,181,253,758,16694,494,4294967264,4294967169,4294967172,579,14917,7469,146,165,14
179525177,5,2857,4294951284,1369,842,159,301,765,16726,469,22,4294967147,4294967145,592,14992,7541,157,180,6
179529177,4294967285,2825,4294951311,1439,861,144,334,711,16732,412,4294967284,4294967138,4294967146,618,15017,7468,135,170,20
179535177,4294966992,2829,4294951196,1414,849,127,361,756,16726,473,4294967253,4294967133,4294967142,588,14977,7458,130,196,4294967285
179541177,4294967072,2787,4294951084,1348,796,116,385,831,16728,422,4294967221,4294967156,4294967154,631,14980,7531,128,202,4294967286
179547177,4294967259,2719,4294950977,1294,660,94,364,749,16710,420,4294967184,4294967175,4294967121,618,15022,7410,129,234,1
179553177,4294966991,2836,4294950913,1318,529,101,329,743,16692,492,4294967107,4294967212,4294967122,626,14975,7438,119,232,4294967295
179559177,4294966915,2854,4294950856,1518,414,146,285,741,16723,491,4294967079,4294967189,4294967140,575,14987,7446,96,282,4294967285
179565177,4294967245,2908,4294950851,1536,304,156,233,687,16657,543,4294967048,4294967183,4294967110,585,14977,7418,96,282,4294967295
179571177,4294967240,2994,4294950801,1612,220,201,203,707,16672,479,4294967018,4294967151,4294967084,527,14958,7394,100,308,9
179577177,4294967100,3008,4294950865,1469,236,220,182,708,16728,487,4294967016,4294967146,4294967098,551,14978,7411,110,335,4294967293
179583177,110,2999,4294951037,1427,253,249,180,755,16760,553,4294967088,4294967143,4294967092,519,14984,7420,120,344,0
179589177,229,2986,4294951117,1404,318,263,169,734,16769,522,4294967139,4294967166,4294967084,556,14965,7359,114,348,4294967290
179595177,4,2957,4294951243,1440,413,255,171,650,16745,496,4294967172,4294967134,4294967123,555,14955,7358,101,349,4294967291
179601177,94,2869,4294951279,1398,454,291,233,730,16797,538,4294967229,4294967144,4294967121,585,14900,7408,118,355,4294967293
179607177,213,2877,4294951350,1427,504,255,254,725,16794,509,4294967251,4294967153,4294967117,547,14931,7415,124,357,13
179613177,4294967229,2814,4294951290,1482,582,247,268,741,16773,519,4294967231,4294967174,4294967120,545,14978,7462,127,339,0
179619177,4294967125,2803,4294951186,1472,560,216,298,699,16720,448,4294967203,4294967162,4294967146,594,14989,7360,109,341,8
179625177,91,2831,4294951144,1432,522,195,285,726,16777,476,4294967167,4294967178,4294967164,562,14939,7425,123,346,3
179631177,4294967232,2838,4294951083,1390,459,167,314,785,16794,391,4294967142,4294967153,4294967160,608,14969,7437,129,346,4
179637177,4294966958,2819,4294950994,1487,391,156,323,793,16802,354,4294967120,4294967179,4294967169,565,14979,7347,110,310,7
179643177,4294967157,2842,4294950949,1401,358,127,285,787,16769,430,4294967073,4294967179,4294967155,557,14934,7355,118,305,12
179649177,4294967157,2930,4294950900,1514,383,118,266,734,16714,379,4294967058,4294967143,4294967150,538,14934,7432,131,280,12
179655177,4294966830,2955,4294950952,1556,388,142,237,765,16692,518,4294967068,4294967183,4294967148,549,14981,7444,147,248,9
179661177,4294966934,2988,4294950955,1605,427,192,236,737,16702,433,4294967078,4294967190,4294967163,547,14963,7395,163,247,12
179667177,4294967211,2978,4294950980,1554,453,246,231,691,16698,424,4294967106,4294967176,4294967142,533,15043,7422,154,234,16
179673177,4294967057,2924,4294950979,1456,520,218,210,706,16725,480,4294967127,4294967145,4294967161,454,14981,7442,193,217,25
179679177,4294967009,2891,4294951059,1402,582,242,231,706,16740,478,4294967167,4294967129,4294967173,472,15028,7486,177,204,6
179685177,28,2881,4294951142,1331,601,224,252,761,16736,503,4294967222,4294967123,4294967197,550,14996,7487,184,214,32
179691177,4294967251,2847,4294951167,1340,541,222,229,713,16832,438,4294967262,4294967121,4294967192,509,15004,7372,175,184,24
179697177,4294966978,2862,4294951214,1305,506,222,224,787,16818,458,4294967293,4294967126,4294967208,517,15006,7352,180,188,27
179703177,4294967220,2907,4294951221,1389,455,196,234,746,16815,419,4,4294967119,4294967224,521,14971,7399,180,168,35
179709177,30,2929,4294951141,1444,445,161,262,759,16770,492,4294967271,4294967154,4294967222,503,14954,7433,189,185,48
179715177,4294967034,2981,4294951160,1399,428,131,255,714,16777,418,4294967232,4294967188,4294967209,523,14977,7405,177,173,61
179721177,4294967075,2932,4294951113,1351,404,146,293,760,16737,440,4294967166,4294967142,4294967212,577,14939,7488,144,158,41
179727177,4294967275,2953,4294951107,1420,399,177,304,739,16733,478,4294967104,4294967155,4294967190,589,14977,7490,141,163,42
179733177,4294967061,2823,4294951039,1473,412,188,305,758,16694,496,4294967058,4294967139,4294967216,555,14976,7397,142,166,39
179739177,4294967015,2751,4294951028,1424,393,225,274,788,16704,552,4294967053,4294967156,4294967185,529,14921,7480,137,179,31
179745177,52,2737,4294951007,1571,408,250,266,727,16742,582,4294967061,4294967185,4294967201,545,14954,7519,153,182,70
179751177,4294967295,2829,4294950991,1507,369,235,237,744,16778,520,4294967091,4294967155,4294967221,554,14952,7402,141,190,37
179757177,4294967158,2832,4294950972,1475,355,221,209,724,16739,499,4294967089,4294967116,4294967192,543,14898,7417,139,188,33
179763177,176,2910,4294950899,1512,333,234,192,707,16729,523,4294967081,4294967132,4294967208,540,14935,7439,154,213,39
179769177,263,2883,4294950936,1426,325,252,203,711,16720,566,4294967088,4294967092,4294967197,549,14948,7440,164,223,39
179775177,4294967222,2839,4294951066,1468,332,271,181,720,16738,475,4294967106,4294967121,4294967202,587,14972,7438,167,219,57
179781177,4294967264,2878,4294951130,1470,419,296,209,723,16726,493,4294967139,4294967123,4294967220,579,14921,7439,165,221,43
179787177,173,2869,4294951237,1372,508,313,228,731,16674,500,4294967156,4294967132,4294967217,582,14976,7449,157,229,20
179793177,4294967178,2881,4294951206,1268,571,317,257,685,16663,385,4294967145,4294967157,4294967218,532,15032,7484,172,228,11
179799177,4294967032,2860,4294951237,1331,587,271,283,670,16661,426,4294967113,4294967149,4294967213,617,14987,7437,195,239,18
179805177,21,2930,4294951180,1351,568,212,306,692,16689,499,4294967123,4294967117,4294967204,554,15014,7415,157,226,38
179811177,4294967235,2960,4294951148,1401,538,204,314,713,16695,438,4294967130,4294967145,4294967182,600,15056,7399,168,224,12
179817177,4294967028,3023,4294951059,1391,478,221,297,693,16676,575,4294967142,4294967169,4294967173,517,15039,7435,143,225,31
179823177,4294967261,3014,4294951039,1423,417,208,310,731,16665,486,4294967150,4294967145,4294967137,556,14995,7379,129,217,6
179829177,4294967155,2987,4294950988,1476,396,211,270,724,16727,453,4294967157,4294967156,4294967163,547,15003,7418,137,216,10
179835177,4294966498,3043,4294951015,1533,373,232,254,755,16744,445,4294967139,4294967153,4294967163,567,14998,7487,112,211,18
179841177,4294966143,2986,4294951020,1531,351,229,225,694,16736,408,4294967165,4294967166,4294967160,513,14946,7501,112,225,18
179847177,4294966190,2972,4294951045,1550,394,252,236,726,16737,492,4294967181,4294967174,4294967156,607,14929,7471,109,202,14
179853177,4294966633,2903,4294951101,1503,419,257,251,739,16770,509,4294967177,4294967190,4294967154,579,14928,7568,107,226,4294967290
179859177,605,2855,4294951097,1516,486,256,282,744,16792,517,4294967184,4294967149,4294967169,603,14962,7504,126,251,5
179865177,1733,2815,4294951134,1444,477,259,285,742,16780,451,4294967184,4294967164,4294967164,559,14947,7475,118,244,26
179871177,1724,2846,4294951094,1462,478,289,285,727,16772,500,4294967171,4294967158,4294967185,602,14949,7408,119,236,10
179877177,1513,2782,4294951122,1537,468,288,300,697,16774,480,4294967143,4294967166,4294967177,566,14976,7371,97,252,4294967277
179883177,738,2828,4294951090,1443,405,253,281,667,16798,412,4294967133,4294967185,4294967174,569,14945,7373,108,237,6
179889177,4294967070,2847,4294951098,1407,361,249,243,682,16769,575,4294967110,4294967174,4294967144,577,14963,7380,128,272,5
179895177,4294966060,2833,4294951051,1500,321,218,226,720,16663,516,4294967102,4294967165,4294967134,565,14965,7407,126,266,10
179901177,4294965992,2836,4294951008,1464,278,202,214,716,16697,518,4294967091,4294967162,4294967147,586,14951,7332,130,255,18
179907177,4294966300,2865,4294950948,1375,259,211,223,671,16747,498,4294967100,4294967169,4294967151,577,14936,7448,133,268,4294967287
179913177,4294966340,2857,4294950930,1239,272,250,222,708,16771,484,4294967108,4294967156,4294967150,530,14972,7366,127,263,4294967290
179919177,4294966640,2913,4294950979,1180,326,219,232,737,16754,531,4294967102,4294967157,4294967146,569,14962,7434,126,282,2
179925177,4294967242,3006,4294951037,1312,351,229,230,685,16762,546,4294967086,4294967172,4294967145,562,14952,7435,101,258,12
179931177,4294967289,3212,4294951007,1347,383,202,220,690,16735,553,4294967102,4294967151,4294967127,574,14962,7480,128,290,4294967295
179937177,4294967171,3235,4294950951,1321,389,211,212,682,16679,544,4294967150,4294967151,4294967143,553,14930,7455,140,295,3
179943177,165,3249,4294950888,1397,384,229,206,702,16746,557,4294967179,4294967123,4294967119,554,14908,7469,163,281,4
179949177,226,3294,4294950753,1394,398,184,258,727,16754,438,4294967200,4294967134,4294967137,567,14933,7382,144,308,4294967291
179955177,4294967205,3271,4294950685,1435,418,217,280,742,16792,552,4294967219,4294967165,4294967142,590,14892,7437,164,301,9
179961177,46,3153,4294950694,1526,502,326,275,707,16744,484,4294967216,4294967164,4294967151,561,14944,7463,133,281,16
179967177,226,2933,4294950964,1570,694,440,292,700,16747,482,4294967186,4294967163,4294967156,599,14978,7513,166,272,4294967293
179973177,4294967166,2641,4294951000,1555,973,477,368,690,16770,445,4294967172,4294967168,4294967185,528,14970,7427,152,282,3
179979177,4294966991,2245,4294951173,1588,1201,430,519,731,16724,463,4294967179,4294967161,4294967181,558,14944,7474,154,289,21
179985177,4294967192,2135,4294951325,1461,1416,389,626,755,16738,327,4294967151,4294967152,4294967169,598,14953,7431,153,273,1
179991177,4294967019,2104,4294951464,1426,1533,257,707,765,16770,466,4294967157,4294967110,4294967175,589,15003,7406,146,293,4294967290
179997177,4294966760,2224,4294951518,1575,1588,132,721,807,16821,474,4294967117,4294967112,4294967177,557,15003,7415,174,283,6
180003177,4294967022,2368,4294951426,1645,1505,35,704,762,16867,510,4294967126,4294967129,4294967154,551,15006,7405,175,279,4
180009177,4294967118,2645,4294951226,1662,1340,4294967289,675,671,16794,533,4294967160,4294967131,4294967161,570,14955,7394,170,273,21
180015177,4294966788,2888,4294951032,1526,1170,4294967275,648,686,16817,485,4294967186,4294967112,4294967165,568,14992,7386,156,297,6
180021177,4294966989,3087,4294950927,1447,999,37,675,604,16785,456,4294967233,4294967087,4294967179,606,15038,7389,162,267,4294967290
180027177,4294967288,3184,4294950791,1344,844,134,703,619,16792,458,4294967221,4294967073,4294967197,544,15025,7449,161,276,14
180033177,4294967144,3212,4294950716,1328,700,287,695,636,16839,463,4294967224,4294967095,4294967220,544,15001,7469,180,262,4294967284
180039177,4294967177,3150,4294950625,1271,599,470,670,650,16812,398,4294967226,4294967122,4294967229,604,15008,7428,155,233,4294967294
180045177,198,3030,4294950505,1299,538,602,603,672,16811,412,4294967200,4294967147,4294967249,642,15040,7450,157,242,4294967284
180051177,88,2703,4294950546,1291,464,670,609,598,16809,578,4294967176,4294967161,4294967284,554,14981,7498,163,213,4294967293
180057177,4294967262,2556,4294950606,1259,401,734,574,635,16808,530,4294967134,4294967161,31,570,14957,7428,160,220,4294967287
180063177,244,2503,4294950500,1244,352,761,592,738,16814,475,4294967106,4294967147,42,513,14987,7483,162,223,4294967273
180069177,260,2501,4294950473,1297,236,731,588,755,16788,484,4294967070,4294967143,18,524,14938,7435,159,222,4294967292
180075177,4294967161,2541,4294950449,1440,95,660,555,756,16743,481,4294967020,4294967166,17,512,14956,7417,171,230,4294967290
180081177,4294967265,2617,4294950404,1562,1,545,532,765,16670,459,4294967016,4294967182,11,513,14938,7435,166,238,10
180087177,295,2722,4294950433,1624,7,400,505,738,16659,543,4294967020,4294967222,28,525,14940,7418,140,215,15
180091177,189,2833,4294950462,1802,42,353,537,679,16627,449,4294967049,4294967201,7,483,14960,7442,155,245,4294967257
180097177,4294967233,2913,4294950407,1858,201,314,559,676,16667,522,4294967084,4294967208,26,539,14944,7360,149,235,4294967274
180103177,125,2850,4294950389,1690,469,314,570,631,16617,444,4294967119,4294967203,24,560,14991,7462,132,220,4294967254
180109177,128,2801,4294950380,1422,929,257,603,704,16697,465,4294967152,4294967164,11,539,14931,7454,129,222,4294967285
180115177,4294967017,2757,4294950344,1261,1472,229,644,763,16737,498,4294967213,4294967134,1,553,14964,7390,125,239,4294967288
180121177,4294967065,2693,4294950418,1019,2014,256,681,818,16793,455,4294967248,4294967111,4294967273,543,14952,7440,125,237,4294967281
180127177,4294967177,2611,4294950494,954,2498,328,691,802,16758,549,32,4294967119,12,566,14953,7360,125,247,13
180131177,4294966946,2508,4294950574,1062,2816,378,686,767,16774,582,68,4294967148,19,532,14947,7372,130,253,4294967284
180137177,4294966668,2308,4294950760,1318,3195,387,672,753,16922,624,99,4294967172,32,513,14997,7374,147,254,3
180141177,4294966849,2243,4294950950,1478,3424,348,678,789,16890,598,132,4294967164,21,495,15008,7326,131,264,4294967278
180147177,4294967136,2436,4294951180,1645,3629,310,765,672,16840,626,80,4294967153,50,459,14968,7427,128,251,17
180151177,4294967017,2245,4294951202,1870,3661,378,796,676,16857,579,13,4294967117,45,481,14967,7395,127,233,8
180155177,4294966783,2304,4294951133,1887,3634,15,844,738,16789,500,4294967236,4294967100,34,515,15010,7388,138,207,4
180161177,4294966953,2595,4294951171,2047,3620,4294966946,921,758,16697,548,4294967113,4294967081,33,554,14988,7376,146,196,32
180167177,47,2772,4294951135,2152,3606,4294966804,1026,726,16653,543,4294967052,4294967124,7,523,14982,7435,137,185,35
180173177,4294967232,2961,4294951011,2096,3539,4294966709,1126,682,16605,425,4294966960,4294967157,4294967261,567,15034,7437,166,188,4294967291
180179177,4294967169,3191,4294950732,2030,3451,4294966672,1181,671,16652,555,4294966910,4294967224,4294967233,510,15051,7431,159,186,18
180185177,75,3280,4294950649,2142,3319,4294966739,1173,642,16693,526,4294966857,4294967194,4294967210,561,15017,7519,144,172,2
180191177,4294967228,3133,4294950599,2255,3282,4294966954,1159,686,16686,573,4294966848,4294967155,4294967205,524,14972,7494,127,170,21
180197177,4294966998,2909,4294950845,2272,3314,4294967146,1154,710,16705,621,4294966911,4294967154,4294967215,575,14959,7432,131,180,23
180203177,4294967265,2690,4294951139,2414,3238,4294967250,1131,763,16809,522,4294966977,4294967105,4294967234,525,14957,7488,109,149,2
180209177,39,2594,4294951561,2066,3088,4294967215,1040,775,16837,557,4294967046,4294967106,4294967221,622,14991,7443,120,129,11
180215177,4294967041,2660,4294951419,1450,2895,4294967120,999,738,16794,580,4294967132,4294967104,4294967235,626,14992,7415,123,136,4294967292
180221177,4294967187,2719,4294951506,1578,2673,4294967209,803,776,16812,383,4294967166,4294967143,4294967242,559,15021,7432,113,139,9
180227177,150,2740,4294951532,1804,2600,18,889,773,16782,468,4294967175,4294967178,4294967221,572,15006,7412,97,124,16
180233177,2,2761,4294951264,2068,2254,33,1130,712,16633,558,4294967138,4294967234,4294967216,524,14934,7434,85,134,7
180239177,4294967288,2896,4294951085,2104,1673,4294967204,1168,715,16577,555,4294967072,4294967254,4294967223,510,15015,7441,72,137,12
180245177,252,3096,4294951157,2011,1176,4294966889,1139,726,16631,541,4294967044,4294967236,4294967193,564,14974,7374,61,141,13
180251177,244,3188,4294951200,2340,948,4294966924,1221,755,16634,599,4294966990,4294967179,4294967168,469,15012,7318,83,183,10
180257177,19,3036,4294951186,2773,1026,4294967161,1335,773,16716,498,4294966961,4294967127,4294967154,543,14973,7449,75,216,15
180263177,242,2850,4294951124,2778,1220,101,1482,768,16753,530,4294966960,4294967106,4294967137,439,15002,7442,73,232,2
180269177,199,2640,4294951109,2522,1521,138,1641,786,16848,414,4294966993,4294967127,4294967113,525,14977,7382,89,227,6
180275177,4294967019,2483,4294951219,2329,1878,0,1731,753,16829,444,4294967015,4294967112,4294967130,521,15000,7420,78,237,20
180281177,4294967136,2452,4294951428,2252,2278,4294967235,1737,708,16888,512,4294967082,4294967098,4294967147,537,14988,7438,68,269,8
180287177,22,2377,4294951573,2306,2687,14,1691,718,16834,504,4294967118,4294967088,4294967183,571,14983,7458,87,272,3
180293177,4294967033,2321,4294951747,2437,3000,13,1602,711,16813,467,4294967129,4294967106,4294967193,575,14969,7393,94,271,14
180299177,4294966949,2286,4294951683,2538,3221,4294967218,1564,687,16759,460,4294967122,4294967120,4294967220,579,15030,7406,130,278,3
180305177,4294967259,2290,4294951572,2491,3361,4294966979,1570,743,16745,437,4294967050,4294967150,4294967223,600,15021,7428,132,278,6
180311177,4294967215,2315,4294951420,2559,3398,4294966771,1572,706,16726,542,4294967002,4294967170,4294967233,593,14987,7370,130,292,4294967283
180317177,4294967053,2347,4294951313,2567,3372,4294966590,1564,747,16708,458,4294966981,4294967189,4294967234,530,15089,7392,143,292,21
180323177,71,2431,4294951226,2600,3354,4294966533,1595,771,16643,485,4294966995,4294967208,4294967223,487,15085,7379,164,264,29
180329177,118,2374,4294951251,2670,3374,4294966536,1596,783,16676,506,4294967003,4294967207,4294967234,496,15049,7458,172,250,34
180335177,4294966954,2302,4294951319,2809,3424,4294966592,1570,735,16704,566,4294967027,4294967192,4294967228,502,15033,7329,142,229,39
180341177,4294966940,2291,4294951437,2798,3527,4294966639,1485,776,16692,537,4294967091,4294967171,4294967230,488,15059,7383,123,177,37
180347177,4294967082,2208,4294951529,2744,3604,4294966667,1438,790,16740,548,4294967152,4294967156,4294967229,482,15032,7379,126,149,40
180353177,4294966886,2164,4294951624,2627,3562,4294966695,1345,827,16790,541,4294967221,4294967161,4294967234,525,15042,7409,91,113,32
180359177,4294966867,2213,4294951609,2564,3386,4294966743,1252,728,16793,533,4294967272,4294967163,4294967222,512,14997,7441,104,93,34
180365177,4294967208,2282,4294951589,2696,3075,4294966767,1187,693,16739,561,4294967268,4294967186,4294967238,579,15000,7434,79,93,47
180371177,4294967160,2254,4294951391,2606,2624,4294966775,1160,751,16718,431,4294967232,4294967186,4294967264,566,14925,7529,89,92,18
180377177,4294967016,2430,4294951217,2675,2130,4294966778,1207,724,16703,448,4294967232,4294967206,4294967258,547,14931,7492,84,69,25
180383177,104,2523,4294951132,2769,1646,4294966828,1208,738,16781,512,4294967176,4294967176,4294967245,540,14948,7470,100,61,46
180389177,241,2576,4294951058,2847,1241,4294966846,1227,738,16767,582,4294967149,4294967177,4294967254,507,14892,7530,99,73,28
180395177,4294967231,2709,4294950939,3019,1067,4294967046,1251,753,16788,580,4294967105,4294967205,4294967235,567,14889,7479,109,84,15
180401177,105,2757,4294950925,3267,1062,161,1300,763,16825,544,4294967102,4294967230,4294967240,585,14851,7525,114,80,29
180407177,369,2612,4294951042,3538,950,460,1265,692,16797,530,4294967089,4294967232,4294967266,619,14893,7479,139,104,43
180413177,13,2422,4294951205,3528,639,521,1176,688,16755,515,4294967053,4294967205,4294967235,586,14857,7425,124,134,36
180419177,4294967200,2371,4294951305,3443,236,442,1027,748,16783,547,4294967024,4294967160,4294967215,577,14843,7434,140,115,24
180425177,160,2350,4294951252,3320,4294967123,321,903,804,16788,662,4294967025,4294967136,4294967198,592,14849,7392,116,138,36
180431177,7,2338,4294951119,3065,4294966765,225,844,789,16669,657,4294967039,4294967169,4294967260,601,14855,7408,131,161,42
180437177,4294967155,2443,4294950828,2909,4294966483,179,821,747,16703,608,4294967082,4294967202,4294967252,594,14847,7464,138,172,38
180443177,111,2479,4294950493,2852,4294966349,220,876,710,16698,660,4294967110,4294967206,4294967231,580,14883,7400,134,166,28
180449177,38,2448,4294950293,2782,4294966327,317,912,728,16724,636,4294967114,4294967203,4294967215,580,14906,7426,130,192,21
180455177,4294967006,2402,4294950242,2743,4294966459,401,990,657,16719,669,4294967101,4294967152,4294967192,576,14934,7527,111,214,15
180461177,4294967173,2284,4294950450,2771,4294966767,441,1102,743,16711,598,4294967083,4294967159,4294967196,573,14939,7470,102,187,16
180467177,68,2235,4294950656,2781,4294967150,464,1225,739,16660,572,4294967117,4294967160,4294967204,591,14906,7526,80,191,34
180473177,4294967122,2170,4294950885,2767,312,463,1333,720,16725,635,4294967143,4294967216,4294967185,578,14969,7466,63,231,28
180479177,4294967128,2080,4294951043,2785,691,418,1417,673,16725,577,4294967148,4294967256,4294967191,554,14958,7549,76,215,12
180485177,124,2024,4294951168,2732,955,281,1498,718,16756,598,4294967147,4294967233,4294967220,580,14980,7416,81,230,13
180491177,8,2093,4294951208,2660,1063,86,1575,693,16724,664,4294967151,4294967192,4294967230,524,15033,7469,73,250,10
180497177,4294967125,2125,4294951199,2773,1028,4294967135,1591,709,16721,537,4294967136,4294967175,4294967220,554,15045,7420,62,264,24
180503177,4294967221,2160,4294951061,2871,827,4294966974,1596,735,16752,546,4294967187,4294967159,4294967225,550,15027,7481,62,257,18
180509177,4294966910,2162,4294950959,2902,664,4294966849,1561,749,16774,513,4294967214,4294967170,4294967229,502,15035,7455,78,261,25
180515177,4294965940,2160,4294950806,3009,505,4294966774,1637,736,16731,505,4294967217,4294967227,4294967233,536,14993,7398,76,265,24
180521177,4294965658,2095,4294950686,2976,373,4294966694,1766,749,16713,484,4294967196,4294967204,4294967243,529,14981,7472,65,280,44
180527177,4294966118,2019,4294950525,3029,304,4294966678,1906,754,16792,509,4294967194,4294967170,4294967242,548,15051,7366,72,286,26
180533177,4294966941,1960,4294950328,2821,235,4294966648,2111,756,16762,535,4294967189,4294967135,4294967229,541,14953,7410,109,283,37
180539177,1009,1873,4294950278,2953,171,4294966738,2382,849,16726,568,4294967186,4294967168,4294967238,547,14978,7402,119,286,22
180545177,1716,1783,4294950385,3197,140,4294966930,2544,818,16722,467,4294967183,4294967201,4294967242,527,14912,7444,129,275,35
180551177,1725,1642,4294950462,3434,26,4294967129,2559,804,16742,539,4294967163,4294967236,4294967251,591,14944,7418,133,280,33
180557177,825,1450,4294950282,3231,4294967145,4294967226,2522,787,16675,534,4294967146,4294967238,4294967260,565,14934,7500,148,292,42
180563177,76,1462,4294950138,2900,4294966948,4294967108,2541,733,16685,533,4294967121,4294967217,4294967253,532,14919,7465,159,284,33
180569177,4294966516,1524,4294949977,2573,4294966751,4294966977,2671,720,16683,531,4294967105,4294967198,4294967252,521,14869,7445,165,270,33
180575177,4294965909,1532,4294950010,2608,4294966573,4294966964,2812,716,16680,492,4294967128,4294967231,4294967249,543,14865,7513,143,274,29
180581177,4294966232,1580,4294950088,2760,4294966398,4294967083,2940,728,16760,498,4294967134,4294967209,4294967233,575,14901,7429,161,259,17
180587177,4294966783,1535,4294950110,2824,4294966326,4294967206,3024,727,16769,502,4294967175,4294967226,4294967226,580,14933,7465,139,270,19
180593177,4294966839,1430,4294950078,2877,4294966353,4294967222,3065,704,16735,513,4294967207,4294967232,4294967207,547,14930,7463,143,249,31
180599177,4294967033,1452,4294950171,2875,4294966488,4294967194,3101,728,16717,542,4294967222,4294967208,4294967215,508,14883,7516,151,234,32
180605177,206,1395,4294950295,2958,4294966712,4294967151,3142,731,16792,628,4294967224,4294967190,4294967203,597,14927,7504,132,215,18
180611177,80,1400,4294950316,2925,4294966939,4294967103,3195,742,16767,709,4294967232,4294967199,4294967222,570,14903,7493,126,212,13
180617177,4294967220,1449,4294950263,2862,4294967167,4294967024,3264,771,16683,678,4294967217,4294967182,4294967230,560,14986,7486,128,200,14
180623177,131,1510,4294950359,2881,23,4294966989,3337,775,16687,660,4294967242,4294967182,4294967221,570,14966,7408,136,188,11
180629177,4294967283,1455,4294950327,2740,227,4294966903,3469,763,16688,682,4294967232,4294967189,4294967207,549,14961,7448,160,204,16
180635177,4294966755,1529,4294950282,2694,558,4294966820,3657,754,16745,654,4294967232,4294967192,4294967206,530,14984,7514,146,195,6
180641177,4294966814,1576,4294950409,2665,727,4294966718,3878,742,16695,630,4294967178,4294967194,4294967193,581,14963,7492,183,219,12
180647177,4294966923,1510,4294950481,2509,830,4294966565,4048,741,16735,656,4294967130,4294967198,4294967170,569,14985,7452,175,221,4294967281
180653177,4294966634,1388,4294950631,2575,839,4294966446,4202,701,16667,684,4294967112,4294967228,4294967167,586,14997,7526,196,230,11
180659177,4294966626,1300,4294950719,2527,847,4294966327,4335,737,16714,604,4294967090,4294967209,4294967157,601,15018,7564,196,255,10
180665177,4294967078,1228,4294950802,2649,850,4294966283,4442,814,16740,631,4294967077,4294967178,4294967112,545,15043,7411,183,246,9
180671177,4294966903,1151,4294950759,2544,745,4294966252,4559,764,16731,631,4294967101,4294967152,4294967121,553,14986,7465,170,269,14
180677177,4294966677,1162,4294950747,2687,651,4294966219,4675,742,16794,632,4294967131,4294967169,4294967112,598,14995,7454,178,284,4294967291
180683177,4294967065,1147,4294950715,2976,430,4294966214,4765,725,16819,644,4294967139,4294967167,4294967121,623,14964,7473,168,293,9
180689177,4294967140,1130,4294950658,3226,69,4294966186,4783,694,16857,565,4294967167,4294967124,4294967152,571,14927,7421,168,324,4294967291
180695177,4294966786,1194,4294950708,3222,4294967019,4294966155,4783,753,16891,614,4294967196,4294967149,4294967146,528,15014,7427,136,301,4294967291
180701177,4294966970,1109,4294950769,3284,4294966722,4294966144,4780,696,16839,553,4294967209,4294967153,4294967180,556,14942,7523,110,297,4294967286
180707177,4294967257,1100,4294950629,3181,4294966478,4294966163,4824,704,16788,568,4294967167,4294967125,4294967194,560,14916,7534,112,281,0
180713177,4294967017,1165,4294950597,2972,4294966306,4294966190,4866,702,16744,546,4294967132,4294967142,4294967196,556,14948,7499,116,258,9
180719177,4294967079,1054,4294950492,2808,4294966134,4294966248,4909,732,16720,523,4294967102,4294967176,4294967204,559,14971,7419,120,251,4294967292
180725177,283,1096,4294950465,2679,4294966026,4294966252,4968,667,16674,576,4294967047,4294967170,4294967203,560,14975,7416,101,227,4294967280
180731177,218,915,4294950605,2675,4294965961,4294966481,5025,756,16741,555,4294967015,4294967170,4294967196,529,14923,7421,107,226,2
180737177,4294967224,746,4294950834,2618,4294965977,4294966630,5066,744,16807,539,4294967011,4294967167,4294967209,509,14946,7399,93,228,16
180743177,278,597,4294950962,2649,4294966009,4294966774,5113,724,16749,567,4294967037,4294967171,4294967222,536,14966,7444,108,217,14
180749177,423,419,4294951103,2613,4294966006,4294966929,5181,804,16741,600,4294967084,4294967188,4294967233,560,14943,7467,127,189,12
180755177,127,303,4294951141,2700,4294965981,4294967000,5200,832,16727,524,4294967133,4294967168,4294967223,558,14904,7451,166,216,18
180761177,268,312,4294951180,2679,4294965877,4294967025,5235,777,16727,568,4294967176,4294967149,4294967225,502,14895,7485,211,251,30
180767177,462,327,4294951152,2734,4294965683,4294967005,5255,760,16746,574,4294967201,4294967127,4294967223,493,14959,7408,189,236,26
180773177,214,357,4294951131,2722,4294965416,4294966975,5252,789,16737,582,4294967208,4294967126,4294967237,572,14935,7495,174,222,40
180779177,115,372,4294951161,2723,4294965118,4294966949,5259,783,16708,660,4294967209,4294967157,4294967225,505,14959,7464,183,189,49
180785177,397,436,4294951159,2700,4294964830,4294966905,5314,767,16750,577,4294967199,4294967155,4294967230,623,14948,7467,197,191,32
180791177,121,460,4294951099,2586,4294964562,4294966882,5377,758,16724,639,4294967154,4294967148,4294967211,561,14968,7471,213,199,20
180797177,4294967026,411,4294950966,2492,4294964296,4294966869,5438,751,16742,596,4294967140,4294967121,4294967235,574,14960,7473,216,166,8
180803177,5,309,4294950895,2377,4294964160,4294966915,5453,768,16739,677,4294967090,4294967110,4294967245,600,14987,7454,192,151,18
180809177,4294967222,49,4294950967,2088,4294964118,4294966929,5448,806,16754,516,4294967024,4294967119,4294967265,599,14979,7505,167,153,14
180815177,4294966931,4294967209,4294951062,1828,4294964213,4294966956,5446,727,16693,467,4294967018,4294967162,4294967259,651,14920,7479,164,154,26
180821177,4294967271,4294967008,4294951162,1684,4294964380,4294966946,5485,728,16713,483,4294967031,4294967158,4294967244,623,14895,7452,201,185,19
180827177,103,4294966963,4294951122,1672,4294964483,4294966946,5537,716,16739,575,4294967049,4294967173,4294967234,601,14930,7446,196,250,10
180833177,4294967024,4294966992,4294951115,1763,4294964556,4294966868,5644,706,16741,464,4294967055,4294967155,4294967250,564,14951,7517,193,237,21
180839177,4294966981,4294967014,4294951100,1829,4294964569,4294966791,5754,673,16750,575,4294967095,4294967151,4294967275,580,14954,7405,212,226,13
180845177,76,4294967146,4294950997,1925,4294964517,4294966704,5882,697,16793,603,4294967149,4294967151,4294967269,570,14965,7331,166,246,1
180851177,98,4294967185,4294950963,2094,4294964444,4294966638,5967,752,16731,530,4294967200,4294967181,4294967269,577,14970,7361,145,222,4294967283
180857177,4294967241,4294967055,4294951030,2190,4294964295,4294966586,6013,720,16781,614,4294967228,4294967170,4294967257,563,14982,7401,161,213,4294967295
180863177,299,4294966881,4294951136,2095,4294964167,4294966553,5992,775,16819,702,4294967269,4294967131,4294967239,616,15004,7415,172,252,5
180869177,394,4294966631,4294951279,1833,4294964111,4294966497,5919,748,16761,711,4294967273,4294967124,4294967243,579,14992,7448,165,287,4294967286
180875177,123,4294966401,4294951445,1542,4294964083,4294966404,5822,762,16790,682,4294967238,4294967154,4294967245,553,14987,7386,146,281,4294967290
180881177,450,4294966359,4294951477,1358,4294964050,4294966255,5784,781,16733,655,4294967189,4294967187,4294967263,550,15014,7440,145,318,4294967294
180887177,837,4294966364,4294951423,1308,4294963967,4294966086,5812,781,16733,557,4294967113,4294967141,4294967272,567,14962,7406,122,327,4294967277
180893177,782,4294966401,4294951378,1493,4294963824,4294965963,5957,774,16687,570,4294967041,4294967130,4294967244,564,14974,7500,82,323,4294967278
180899177,905,4294966490,4294951304,1622,4294963667,4294965871,6055,773,16670,523,4294966976,4294967147,4294967269,539,14956,7444,41,319,4294967285
180905177,1213,4294966350,4294951274,1609,4294963503,4294965866,6130,805,16652,642,4294966904,4294967192,4294967224,537,14983,7485,71,339,2
180911177,957,4294966178,4294951232,1492,4294963442,4294965901,6178,801,16662,629,4294966890,4294967221,4294967212,575,14915,7457,59,354,4294967279
180917177,567,4294965983,4294951120,1286,4294963449,4294965863,6223,770,16631,555,4294966895,4294967253,4294967230,531,14969,7471,72,355,4294967290
180923177,691,4294965924,4294951077,1115,4294963450,4294965835,6268,762,16688,540,4294966977,4294967197,4294967202,570,14965,7412,111,362,4294967278
180929177,576,4294965842,4294951023,1044,4294963320,4294965786,6274,785,16749,521,4294967107,4294967156,4294967219,535,14967,7413,101,363,4294967273
180935177,19,4294965851,4294951051,1150,4294963206,4294965721,6285,759,16802,506,4294967204,4294967119,4294967224,542,14933,7427,89,334,4294967269
180941177,4294967272,4294965627,4294950929,1010,4294963157,4294965578,6246,761,16744,568,1,4294967133,4294967238,558,14979,7455,97,319,4294967279
180947177,4294967130,4294965559,4294950801,1025,4294963157,4294965263,6211,705,16786,543,46,4294967172,4294967234,569,14973,7444,133,310,4294967277
180953177,4294966657,4294965361,4294950704,1031,4294963283,4294965338,6171,729,16756,550,98,4294967172,4294967265,507,14941,7416,139,304,4294967278
180959177,4294966799,4294965146,4294950608,840,4294963518,4294965490,6167,698,16765,593,101,4294967195,4294967283,565,15003,7437,127,260,4294967280
180965177,110,4294965069,4294950628,733,4294963769,4294965498,6143,705,16797,606,107,4294967161,12,528,14992,7413,129,230,5
180971177,339,4294965108,4294950745,776,4294963927,4294965483,6163,719,16824,665,83,4294967165,4294967291,522,14895,7476,157,208,4294967278
180977177,418,4294965112,4294950719,979,4294964021,4294965561,6149,757,16854,603,7,4294967165,0,499,14999,7454,170,219,15
180983177,1024,4294965096,4294950846,1080,4294964080,4294965614,6106,742,16820,679,4294967201,4294967193,4294967292,500,14983,7452,175,177,4294967294
180989177,892,4294964927,4294951001,1062,4294964213,4294965659,6039,767,16764,696,4294967110,4294967186,14,486,14977,7442,143,170,6
180995177,4294967295,4294964807,4294951239,954,4294964433,4294965753,5967,771,16710,662,4294967049,4294967206,9,445,14927,7517,134,175,17
181001177,4294966960,4294964629,4294951355,827,4294964615,4294965795,5948,767,16680,707,4294967007,4294967233,4294967292,464,14970,7475,123,167,34
181007177,4294966857,4294964547,4294951430,726,4294964786,4294965929,5945,739,16646,673,4294967014,4294967222,4294967283,517,14974,7491,168,171,24
181013177,4294966529,4294964377,4294951426,465,4294964912,4294966006,5960,736,16668,713,4294967013,4294967215,4294967258,559,14963,7477,153,165,21
181019177,4294966764,4294964308,4294951418,211,4294964920,4294966051,5978,754,16669,637,4294967033,4294967231,4294967249,542,14912,7489,158,197,30
181025177,91,4294964223,4294951367,106,4294964932,4294966161,6060,807,16646,677,4294967111,4294967196,4294967269,578,14928,7440,153,201,46
181031177,66,4294964163,4294951313,55,4294964956,4294966202,6150,740,16661,665,4294967186,4294967199,4294967252,575,14935,7483,94,192,39
181037177,4294967114,4294964289,4294951284,4294967269,4294964890,4294966290,6225,783,16699,625,0,4294967159,4294967259,618,14967,7493,80,203,35
181043177,358,4294964269,4294951212,4294967273,4294964776,4294966496,6309,768,16779,653,92,4294967145,4294967266,589,14912,7457,71,228,24
181049177,635,4294964155,4294951172,43,4294964789,4294966703,6367,783,16791,590,125,4294967166,4294967280,610,14919,7471,63,264,40
181055177,256,4294964010,4294951229,71,4294964781,4294966846,6335,775,16783,578,139,4294967157,4294967274,573,14895,7466,94,302,28
181061177,329,4294963897,4294951296,101,4294964787,4294967091,6265,743,16794,579,133,4294967147,8,555,14945,7426,124,319,33
181067177,465,4294963645,4294951403,173,4294964857,4294967244,6194,715,16763,564,77,4294967158,4294967280,532,14944,7430,138,324,40
181073177,8,4294963564,4294951455,60,4294964927,88,6107,706,16830,555,5,4294967171,4294967288,490,14945,7416,160,336,25
181079177,4294966936,4294963379,4294951579,100,4294964947,166,5996,749,16744,545,4294967206,4294967163,4294967260,479,14975,7447,154,323,34
181085177,4294966992,4294963254,4294951607,79,4294964915,261,5861,755,16756,563,4294967111,4294967187,4294967236,554,15005,7443,172,329,24
181091177,4294966706,4294963253,4294951641,158,4294965006,384,5714,761,16693,631,4294967043,4294967178,4294967255,520,15009,7454,205,330,31
181097177,4294966354,4294962969,4294951832,48,4294964910,692,5663,793,16721,601,4294966989,4294967174,4294967245,529,14945,7470,197,284,46
181103177,4294966646,4294962849,4294951805,4294967171,4294964752,431,5549,776,16692,612,4294966993,4294967173,4294967262,484,14957,7463,205,264,31
181109177,4294966737,4294963065,4294951821,4294967033,4294964676,232,5563,815,16667,608,4294967025,4294967178,4294967233,544,14951,7508,192,260,56
181115177,4294966274,4294963170,4294951942,4294966992,4294964641,335,5604,761,16670,708,4294967058,4294967183,4294967236,555,14994,7459,177,229,34
181121177,4294966429,4294963092,4294951923,4294966901,4294964533,166,5617,790,16658,667,4294967098,4294967162,4294967228,584,14952,7509,176,223,15
181127177,4294966809,4294963330,4294951823,4294966952,4294964380,185,5592,812,16684,604,4294967174,4294967191,4294967237,593,15000,7506,129,217,28
181133177,4294966625,4294963169,4294951700,4294966775,4294964280,252,5569,797,16721,619,4294967253,4294967188,4294967253,580,14941,7479,130,215,24
181139177,4294966677,4294963077,4294951626,4294966618,4294964306,282,5498,803,16682,671,4294967293,4294967152,4294967254,578,14905,7420,80,197,10
181145177,4294967250,4294962959,4294951612,4294966561,4294964438,391,5472,762,16704,682,47,4294967134,4294967242,497,14958,7414,94,206,24
181151177,4294967084,4294962874,4294951616,4294966527,4294964605,437,5434,863,16767,610,72,4294967145,4294967255,565,14900,7416,116,212,22
181157177,4294966675,4294962764,4294951617,4294966643,4294964778,475,5429,762,16746,578,84,4294967140,4294967229,555,14942,7423,109,202,18
181163177,4294967193,4294962773,4294951683,4294966729,4294964912,485,5440,772,16754,567,50,4294967134,4294967214,511,14949,7411,124,170,20
181169177,43,4294962643,4294951795,4294966754,4294964994,413,5435,760,16813,576,4294967274,4294967138,4294967212,540,15003,7455,96,161,38
181175177,4294966730,4294962529,4294951849,4294966639,4294965068,202,5349,734,16811,574,4294967199,4294967153,4294967212,553,14964,7364,105,161,15
181181177,4294966410,4294962500,4294951807,4294966699,4294965190,5,5264,758,16771,666,4294967150,4294967109,4294967210,572,14957,7449,110,181,22
181187177,4294966306,4294962477,4294951885,4294966785,4294965242,4294967244,5108,761,16775,563,4294967093,4294967147,4294967210,560,14936,7440,118,179,2
181193177,4294966180,4294962416,4294951972,4294966709,4294965372,33,4962,747,16751,707,4294967047,4294967147,4294967205,574,14927,7575,137,200,4
181199177,4294966919,4294962308,4294952128,4294966626,4294965536,80,4838,762,16719,624,4294966999,4294967144,4294967214,567,14934,7418,163,197,16
181205177,1226,4294962338,4294952235,4294966473,4294965570,4294967250,4737,737,16724,671,4294967029,4294967144,4294967235,566,14878,7482,179,245,1
181211177,1719,4294962374,4294952281,4294966460,4294965495,4294967130,4680,725,16720,652,4294967075,4294967152,4294967227,540,14928,7425,174,251,4294967294
181217177,1500,4294962410,4294952299,4294966570,4294965410,4294967131,4683,785,16695,625,4294967147,4294967140,4294967226,560,14974,7441,185,256,4294967290
181223177,1206,4294962460,4294952219,4294966562,4294965365,4294967273,4773,827,16719,581,4294967188,4294967097,4294967225,557,14975,7512,197,237,10
181229177,395,4294962410,4294952236,4294966409,4294965312,64,4851,778,16694,581,4294967247,4294967095,4294967214,563,14974,7437,165,231,4294967292
181235177,4294966384,4294962323,4294952371,4294966225,4294965304,96,4875,804,16729,638,4294967262,4294967138,4294967234,548,14964,7453,180,230,14
181241177,4294966061,4294962295,4294952430,4294966157,4294965282,125,4914,829,16723,645,4294967283,4294967112,4294967217,572,15034,7478,145,241,15
181247177,4294966487,4294962328,4294952417,4294966159,4294965271,208,4965,794,16706,584,4294967292,4294967114,4294967256,553,14965,7450,133,214,5
181253177,4294966534,4294962212,4294952503,4294966140,4294965286,331,4965,780,16760,592,4294967294,4294967121,4294967226,532,15001,7419,129,212,19
181259177,4294966771,4294962246,4294952445,4294966194,4294965296,145,4961,807,16707,570,4294967269,4294967079,4294967232,597,14964,7404,115,216,3
181265177,75,4294962283,4294952442,4294966359,4294965343,84,4916,819,16813,537,4294967242,4294967129,4294967235,608,14964,7507,138,206,22
181271177,42,4294962209,4294952409,4294966358,4294965305,4294967183,4877,799,16734,553,4294967206,4294967154,4294967237,569,14969,7470,160,198,2
181277177,4294967141,4294962208,4294952402,4294966397,4294965348,4294967213,4810,747,16799,563,4294967183,4294967167,4294967253,529,14989,7513,149,235,9
181283177,129,4294961967,4294952615,4294966364,4294965349,4294967145,4727,775,16759,584,4294967154,4294967120,4294967258,560,14986,7478,129,238,24
181289177,211,4294961816,4294952700,4294966315,4294965282,4294967052,4647,801,16734,568,4294967139,4294967135,4294967258,588,14979,7483,136,221,6
181295177,86,4294961865,4294952822,4294966150,4294965255,4294967145,4597,887,16716,552,4294967137,4294967144,1,559,14917,7498,139,227,6
181301177,253,4294961809,4294952908,4294966021,4294965201,4294967222,4562,863,16732,555,4294967154,4294967140,4294967291,542,14889,7574,137,218,2
181307177,451,4294961769,4294952881,4294965971,4294965083,4294967199,4519,807,16767,455,4294967156,4294967179,4294967285,516,14888,7494,131,250,13
181313177,106,4294961871,4294952824,4294965903,4294964901,4294967199,4551,770,16736,488,4294967149,4294967176,4294967274,503,14934,7449,122,237,28
181319177,4294967198,4294961939,4294952736,4294965819,4294964711,4294967232,4660,801,16681,539,4294967141,4294967188,4294967291,577,14923,7457,155,254,4294967292
181325177,45,4294961965,4294952525,4294965825,4294964533,4294967241,4777,784,16632,431,4294967135,4294967172,4294967267,578,14910,7377,173,278,10
181331177,4294967127,4294962046,4294952305,4294965870,4294964368,4294967276,4868,770,16680,432,4294967131,4294967152,4294967277,579,14945,7437,147,259,25
181337177,4294967060,4294961984,4294952081,4294965855,4294964265,40,4966,784,16695,580,4294967158,4294967156,4294967249,576,14968,7478,144,251,4294967295
181343177,233,4294961944,4294951927,4294965684,4294964205,4294967259,4980,789,16760,554,4294967202,4294967190,4294967234,550,14947,7388,148,245,15
181349177,250,4294961896,4294951870,4294965701,4294964215,4294967181,4961,793,16767,605,4294967269,4294967181,4294967271,584,14935,7419,172,249,13
181355177,4294967120,4294961892,4294951745,4294965668,4294964310,4294967200,4896,781,16738,690,28,4294967184,4294967292,559,14932,7446,155,246,4294967285
181361177,4294967287,4294961747,4294951577,4294965573,4294964538,4294967284,4820,822,16784,661,72,4294967150,16,552,14905,7481,170,263,23
181367177,150,4294961459,4294951568,4294965571,4294964874,4294967279,4670,826,16816,624,97,4294967149,9,515,14968,7432,175,281,14
181373177,4294966932,4294961283,4294951611,4294965465,4294965250,4294967267,4547,834,16762,573,107,4294967151,18,503,14985,7369,147,289,4294967295
181379177,4294966504,4294961104,4294951626,4294965542,4294965580,4294967220,4393,888,16823,475,97,4294967151,21,529,15024,7409,124,282,25
181385177,4294966576,4294961086,4294951655,4294965558,4294965934,4294967248,4262,853,16791,549,52,4294967190,26,539,15044,7418,97,271,21
181391177,4294965990,4294960905,4294951781,4294965662,4294966353,73,4153,762,16778,568,4294967294,4294967189,68,500,15041,7402,83,290,18
181397177,4294965496,4294960737,4294952145,4294965693,4294966761,127,4017,788,16712,518,4294967229,4294967202,50,550,15021,7486,90,273,21
181403177,4294966368,4294960584,4294952484,4294965709,4294966937,4294967292,3897,837,16683,537,4294967122,4294967200,51,544,14999,7475,75,276,14
181409177,4294967192,4294960583,4294952842,4294965740,4294967025,4294967277,3839,790,16688,522,4294967078,4294967207,52,496,14995,7473,82,304,27
181415177,30,4294960674,4294952989,4294965757,4294967099,4294967234,3875,831,16682,567,4294967041,4294967223,35,468,15003,7516,74,293,33
181421177,566,4294960479,4294953408,4294965902,4294966828,4294967285,3958,827,16693,586,4294967047,4294967238,18,573,14986,7387,94,233,19
181427177,1006,4294960353,4294953524,4294966022,4294966306,4294967013,4020,794,16689,561,4294967062,4294967262,4294967295,526,14931,7442,112,220,12
181433177,572,4294960381,4294953604,4294965938,4294966057,4294966995,4102,772,16609,556,4294967117,4294967205,4294967270,509,14944,7480,146,199,5
181439177,340,4294960308,4294953703,4294965732,4294965940,4294967154,4174,773,16662,620,4294967198,4294967204,4294967280,517,14970,7394,134,196,34
181445177,625,4294960292,4294953695,4294965681,4294965832,91,4319,770,16726,649,4294967281,4294967156,4294967295,564,14979,7532,132,159,22
181451177,250,4294960240,4294953541,4294965528,4294965642,335,4424,807,16770,575,82,4294967157,4294967270,609,14977,7501,98,153,10
181457177,4294967120,4294960083,4294953408,4294965687,4294965392,510,4456,798,16782,651,119,4294967151,4294967274,610,14898,7504,119,181,14
181463177,146,4294959974,4294953342,4294965673,4294965071,650,4453,827,16819,666,160,4294967142,4294967282,572,14909,7444,126,208,35
181469177,210,4294959791,4294953168,4294965569,4294964805,651,4397,835,16736,672,163,4294967162,4294967279,541,14893,7502,139,208,13
181475177,4294967030,4294959691,4294953071,4294965356,4294964671,542,4317,839,16765,697,123,4294967140,4294967288,534,14871,7551,150,212,4
181481177,4294967159,4294959755,4294952975,4294965307,4294964575,411,4164,857,16763,605,41,4294967163,4294967274,546,14873,7514,168,242,17
181487177,169,4294959754,4294952859,4294965269,4294964538,302,4000,824,16730,553,4294967257,4294967156,4294967253,559,14906,7485,162,253,22
181493177,4294967112,4294959743,4294952871,4294965132,4294964602,239,3842,842,16697,539,4294967172,4294967183,4294967260,501,14946,7558,162,256,9
181499177,4294966946,4294959661,4294952984,4294965012,4294964731,212,3666,790,16715,589,4294967116,4294967224,4294967256,566,14881,7546,168,241,5
181505177,4294967250,4294959555,4294953071,4294964810,4294964948,207,3528,800,16733,608,4294967083,4294967195,4294967261,568,14914,7495,146,217,24
181511177,4294966952,4294959520,4294953222,4294964784,4294965191,188,3382,852,16758,530,4294967086,4294967169,4294967264,610,14948,7538,160,239,26
181517177,4294966395,4294959556,4294953317,4294964791,4294965433,115,3273,849,16784,535,4294967095,4294967154,4294967246,544,14923,7659,183,287,17
181523177,4294966678,4294959679,4294953308,4294964835,4294965594,90,3200,781,16723,590,4294967119,4294967150,4294967223,584,14923,7592,184,313,9
181529177,4294966899,4294959670,4294953328,4294964885,4294965710,70,3166,806,16692,548,4294967164,4294967141,4294967216,591,14996,7493,172,318,4
181535177,4294966631,4294959655,4294953363,4294964908,4294965856,134,3105,863,16747,621,4294967185,4294967146,4294967206,537,14973,7550,144,300,16
181541177,4294966824,4294959608,4294953419,4294964894,4294965979,196,3009,821,16724,643,4294967235,4294967139,4294967225,543,15010,7445,146,296,14
181547177,4294967105,4294959447,4294953597,4294964854,4294966128,344,2818,751,16714,560,4294967278,4294967113,4294967233,520,15005,7480,155,314,12
181553177,4294966904,4294959232,4294953736,4294964767,4294966204,453,2615,798,16746,517,4294967284,4294967103,4294967243,598,15005,7447,131,315,17
181559177,4294966973,4294959205,4294953884,4294964604,4294966332,533,2422,793,16708,588,4294967287,4294967127,4294967241,572,14923,7474,125,310,15
181565177,30,4294959237,4294953880,4294964630,4294966460,510,2272,796,16760,546,4294967230,4294967146,4294967195,537,14979,7519,126,334,23
181571177,4294967105,4294959237,4294954049,4294964600,4294966563,575,2191,824,16690,501,4294967169,4294967168,4294967178,526,14990,7444,118,330,14
181577177,4294966929,4294959197,4294954201,4294964677,4294966639,624,2092,808,16649,573,4294967136,4294967190,4294967175,559,14952,7482,145,354,3
181583177,105,4294959110,4294954285,4294964731,4294966680,736,1971,797,16617,607,4294967077,4294967203,4294967153,594,14967,7442,142,362,4294967281
181589177,222,4294958993,4294954368,4294964681,4294966742,794,1814,783,16652,601,4294967077,4294967202,4294967148,549,14936,7431,149,356,4294967291
181595177,4294967139,4294958983,4294954522,4294964713,4294966889,847,1598,853,16679,630,4294967086,4294967163,4294967112,549,14982,7435,126,335,4294967285
181601177,4294967222,4294958912,4294954559,4294964684,4294967038,859,1429,825,16742,646,4294967113,4294967118,4294967108,537,14985,7382,140,321,4294967284
181607177,85,4294958769,4294954609,4294964666,4294967173,882,1189,883,16740,538,4294967130,4294967118,4294967112,538,14922,7439,141,340,14
181613177,4294967099,4294958688,4294954642,4294964624,10,896,930,909,16797,575,4294967174,4294967152,4294967102,483,14965,7407,160,312,2
181619177,4294967123,4294958760,4294954735,4294964688,150,845,632,850,16777,599,4294967238,4294967153,4294967111,521,14944,7464,180,291,15
181625177,228,4294958791,4294954758,4294964622,324,749,350,794,16773,685,4294967287,4294967168,4294967116,536,14957,7468,191,242,4294967292
181631177,4294967257,4294958903,4294954784,4294964755,548,670,103,769,16704,600,21,4294967161,4294967135,560,14969,7356,201,235,4294967289
181637177,4294966888,4294958920,4294954822,4294964831,765,649,4294967121,753,16724,646,4294967285,4294967117,4294967127,567,14966,7544,178,228,4294967290
181643177,4294967104,4294958885,4294954821,4294964854,962,646,4294966768,785,16737,520,4294967266,4294967100,4294967143,549,14957,7413,182,154,25
181649177,4294967147,4294958836,4294954819,4294964742,1253,604,4294966404,815,16721,598,4294967221,4294967125,4294967154,519,14962,7456,165,156,4294967290
181655177,4294966841,4294958770,4294954792,4294964504,1555,517,4294966000,826,16753,553,4294967186,4294967163,4294967135,522,14891,7523,160,145,11
181661177,4294967027,4294958797,4294954758,4294964221,1950,433,4294965622,798,16699,640,4294967138,4294967178,4294967115,526,14997,7532,156,144,4294967288
181667177,54,4294958843,4294954784,4294964339,2321,331,4294965229,812,16734,500,4294967115,4294967157,4294967116,505,14977,7588,146,134,14
181673177,4294967029,4294958927,4294954836,4294964080,2742,250,4294964855,831,16746,578,4294967083,4294967153,4294967098,489,14921,7437,148,151,19
181679177,4294966917,4294959043,4294954841,4294964102,3207,219,4294964522,818,16743,531,4294967083,4294967140,4294967061,492,14979,7386,134,155,12
181685177,77,4294959150,4294954818,4294964227,3655,241,4294964213,782,16812,597,4294967048,4294967102,4294967052,504,14944,7494,133,165,46
181691177,98,4294959394,4294954797,4294964235,4096,247,4294963944,792,16773,609,4294967076,4294967101,4294967059,478,14973,7432,140,168,33
181697177,4294967186,4294959503,4294954735,4294964232,4545,219,4294963697,837,16757,609,4294967077,4294967092,4294967074,470,15014,7444,148,164,32
181703177,273,4294959766,4294954556,4294964387,4856,219,4294963492,760,16699,538,4294967131,4294967116,4294967083,551,14970,7414,152,189,45
181709177,315,4294960046,4294954408,4294964486,5070,256,4294963328,791,16715,553,4294967150,4294967116,4294967096,541,14952,7467,161,212,29
181715177,4294967134,4294960218,4294954326,4294964803,5160,289,4294963160,788,16783,548,4294967192,4294967097,4294967127,537,14970,7441,171,210,51
181721177,17,4294960391,4294954268,4294964939,5220,302,4294962927,813,16831,586,4294967172,4294967103,4294967116,570,14943,7404,173,195,33
181727177,222,4294960603,4294954277,4294965199,5238,276,4294962732,767,16771,604,4294967173,4294967098,4294967129,593,14924,7479,186,209,22
181733177,4294967215,4294960793,4294954162,4294965476,5164,235,4294962545,824,16788,518,4294967146,4294967109,4294967130,610,14941,7428,200,213,34
181739177,8,4294960816,4294954117,4294965592,5150,233,4294962369,786,16819,547,4294967140,4294967111,4294967110,554,14938,7430,206,253,28
181745177,735,4294960757,4294954066,4294965659,5185,184,4294962191,812,16770,541,4294967110,4294967128,4294967124,585,14913,7454,223,267,13
181751177,891,4294960781,4294953923,4294965803,5258,126,4294961999,812,16757,528,4294967045,4294967123,4294967147,550,14925,7484,208,242,30
181757177,743,4294960723,4294953684,4294965663,5382,55,4294961912,859,16725,505,4294967019,4294967077,4294967147,570,14937,7448,197,252,28
181763177,999,4294960679,4294953464,4294965691,5548,41,4294961821,845,16763,489,4294966998,4294967099,4294967149,580,14958,7511,184,252,8
181769177,686,4294960629,4294953385,4294965692,5711,38,4294961749,825,16721,512,4294967006,4294967117,4294967125,512,14989,7478,186,262,17
181775177,4294967126,4294960640,4294953340,4294965647,5936,9,4294961636,778,16686,501,4294967009,4294967136,4294967133,515,14975,7497,172,245,4
181781177,4294966821,4294960671,4294953204,4294965659,6165,4294967278,4294961484,794,16691,542,4294967005,4294967139,4294967136,581,15004,7445,155,251,14
181787177,4294966669,4294960833,4294953172,4294965756,6396,4294967183,4294961373,784,16667,540,4294967012,4294967128,4294967154,579,15016,7493,110,248,4294967288
181793177,4294966068,4294961085,4294953053,4294965785,6645,4294967126,4294961288,786,16677,497,4294967092,4294967113,4294967145,538,14969,7427,130,245,8
181799177,4294965899,4294961228,4294952855,4294965813,6828,4294966994,4294961217,746,16737,520,4294967161,4294967105,4294967121,528,14963,7368,107,247,15
181805177,4294966377,4294961595,4294952729,4294965910,6956,4294966823,4294961196,787,16734,560,4294967238,4294967111,4294967136,542,15009,7405,95,248,0
181811177,4294966282,4294961812,4294952618,4294966266,6861,4294966696,4294961266,762,16778,511,4294967286,4294967133,4294967147,505,14961,7486,88,242,9
181817177,4294966120,4294961899,4294952545,4294966658,6701,4294966605,4294961286,771,16791,490,12,4294967153,4294967166,522,14964,7481,98,240,18
181823177,4294966716,4294961868,4294952508,4294966803,6609,4294966680,4294961286,766,16816,566,14,4294967145,4294967179,543,14939,7495,104,255,17
181829177,4294967001,4294961545,4294952640,4294966877,6606,4294966700,4294961225,761,16771,481,4294967268,4294967139,4294967178,547,14942,7449,92,270,19
181835177,4294966620,4294961310,4294952741,4294966763,6535,4294966461,4294961107,811,16836,575,4294967208,4294967149,4294967181,545,14911,7418,121,276,12
181841177,4294966608,4294961355,4294952729,4294966817,6509,4294966217,4294961056,822,16773,597,4294967152,4294967150,4294967165,550,14960,7486,115,257,9
181847177,4294966610,4294961411,4294952734,4294966772,6599,4294966425,4294961020,832,16735,624,4294967057,4294967175,4294967177,537,14981,7438,141,267,20
181853177,4294966010,4294961310,4294952839,4294966872,6590,4294966585,4294960967,803,16733,552,4294966999,4294967208,4294967186,553,14966,7482,135,253,2
181859177,4294966352,4294961353,4294952737,4294966842,6513,4294966689,4294960883,810,16654,609,4294966936,4294967213,4294967176,559,14916,7525,138,232,31
181865177,413,4294961382,4294952578,4294966816,6616,4294966872,4294960830,763,16625,638,4294966940,4294967220,4294967187,568,14946,7429,164,228,4
181871177,1344,4294961476,4294952364,4294966838,6738,4294966929,4294960843,761,16642,615,4294966958,4294967204,4294967159,530,14910,7450,138,221,30
181877177,1624,4294961723,4294952195,4294966916,6843,4294966962,4294960856,779,16637,598,4294967005,4294967192,4294967134,529,14975,7421,126,199,36
181883177,1702,4294961890,4294952088,4294966891,6872,4294967010,4294960908,793,16668,661,4294967087,4294967187,4294967150,579,15007,7420,129,190,19
181889177,814,4294962031,4294952071,4294967088,6901,4294967075,4294960886,782,16747,618,4294967195,4294967157,4294967122,516,14978,7408,106,174,9
181895177,4294966844,4294961810,4294952153,4294967216,6717,4294966922,4294960761,814,16754,639,4294967292,4294967144,4294967144,528,14936,7471,96,198,38
181901177,4294966449,4294961688,4294952112,32,6390,4294966322,4294960528,791,16776,711,56,4294967129,4294967156,533,14967,7409,113,189,28
181907177,4294966430,4294962190,4294952049,224,6591,4294966446,4294960387,792,16809,646,112,4294967120,4294967155,602,14980,7457,105,191,39
181913177,4294966204,4294962442,4294952131,66,6940,4294966498,4294960168,800,16785,614,130,4294967127,4294967182,566,15012,7464,118,204,27
181919177,4294966356,4294962532,4294952328,274,7484,4294966786,4294959914,756,16792,587,87,4294967136,4294967205,559,15004,7466,139,214,41
181925177,4294967042,4294962793,4294952475,518,7761,4294966516,4294959576,785,16800,546,4294967292,4294967136,4294967206,560,15008,7497,161,232,41
181931177,4294967210,4294963056,4294952464,795,7891,4294966700,4294959399,796,16780,583,4294967187,4294967123,4294967213,531,14944,7529,158,233,51
181937177,4294967167,4294962958,4294952510,1013,7880,4294966658,4294959232,743,16787,509,4294967084,4294967155,4294967205,567,14966,7467,154,226,7
181943177,401,4294963013,4294952470,1106,7887,4294966659,4294959082,771,16692,513,4294966978,4294967158,4294967202,569,14965,7557,164,232,15
181949177,644,4294963061,4294952432,945,7973,4294966703,4294959053,760,16698,519,4294966916,4294967196,4294967192,581,14906,7512,187,245,46
181955177,330,4294963118,4294952597,749,8060,4294966387,4294959073,751,16669,567,4294966872,4294967190,4294967171,565,14929,7568,150,238,44
181961177,472,4294963569,4294952508,843,7944,4294966194,4294959147,786,16651,531,4294966855,4294967173,4294967160,625,14985,7466,146,217,46
181967177,635,4294963985,4294952452,1109,7778,4294966142,4294959308,805,16611,594,4294966903,4294967167,4294967151,571,14885,7538,193,246,43
181973177,226,4294964070,4294952474,1695,7474,4294966233,4294959512,780,16616,613,4294966973,4294967176,4294967160,582,14936,7405,196,272,37
181979177,96,4294964101,4294952451,1729,7017,4294966475,4294959698,816,16649,640,4294967062,4294967171,4294967151,590,14955,7465,150,313,22
181985177,368,4294964193,4294952470,1668,7017,4294966455,4294959795,785,16676,565,4294967137,4294967164,4294967132,539,14929,7438,127,317,9
181991177,199,4294964029,4294952528,1426,7146,4294966605,4294959896,782,16681,598,4294967208,4294967146,4294967112,553,14944,7465,147,268,4294967295
181997177,4294967049,4294964012,4294952585,1410,7124,4294966435,4294959973,744,16667,589,4294967288,4294967126,4294967085,582,14997,7409,149,264,32
182003177,4294967199,4294964209,4294952364,1674,6956,4294966430,4294960019,778,16723,570,6,4294967136,4294967093,604,14994,7369,119,242,10
182009177,4294967178,4294964280,4294952189,1881,6702,4294966490,4294960018,692,16786,582,40,4294967138,4294967115,575,14950,7463,75,226,24
182015177,4294966713,4294964042,4294952011,2341,6347,4294966666,4294959975,699,16822,653,44,4294967138,4294967125,534,14868,7514,78,223,22
182021177,4294966714,4294965370,4294951586,2653,6167,4294966929,4294959947,643,16860,709,36,4294967131,4294967154,568,14961,7419,97,245,19
182027177,4294966940,4294965347,4294951206,2619,6514,1070,4294960172,690,16785,713,4294967257,4294967152,4294967166,559,14961,7390,96,254,29
182033177,4294966838,4294965036,4294950898,2641,6976,1230,4294960200,717,16781,756,4294967212,4294967160,4294967141,558,14994,7490,117,257,1
182039177,4294966922,4294964962,4294950624,2643,7364,760,4294960105,749,16775,725,4294967157,4294967153,4294967141,578,14923,7490,108,254,14
182045177,4294967272,4294965260,4294950423,2923,7532,288,4294960011,799,16740,707,4294967116,4294967168,4294967133,554,14966,7454,122,234,16
182051177,4294966992,4294965448,4294950198,3146,7619,4294967161,4294959953,708,16713,612,4294967047,4294967192,4294967132,626,14972,7411,145,238,31
182057177,4294966630,4294965459,4294949969,3370,7714,4294966987,4294959983,709,16692,518,4294967020,4294967205,4294967119,532,14988,7448,145,235,33
182063177,4294966989,4294965387,4294949994,3421,7952,4294966966,4294960017,710,16652,639,4294967013,4294967189,4294967148,551,14969,7497,153,238,32
182069177,4294967049,4294965178,4294950254,3284,8416,4294967225,4294960081,729,16670,637,4294967038,4294967184,4294967156,509,14949,7460,149,225,41
182075177,4294966708,4294965012,4294950548,3171,9037,223,4294960156,829,16719,637,4294967076,4294967183,4294967131,494,14955,7436,174,224,22
182081177,4294966890,4294964979,4294951010,3215,9629,423,4294960206,777,16772,614,4294967142,4294967149,4294967131,584,14948,7445,220,200,28
182087177,4294967191,4294965040,4294951346,3465,10074,569,4294960212,754,16708,529,4294967182,4294967155,4294967125,543,14945,7436,216,227,19
182093177,4294966852,4294965133,4294951618,3666,10261,566,4294960238,716,16707,553,4294967235,4294967200,4294967101,598,14950,7495,196,191,14
182099177,4294966794,4294965135,4294951766,3733,10367,485,4294960367,677,16698,597,4294967247,4294967193,4294967114,564,14926,7502,234,177,13
182105177,4294967290,4294965243,4294951792,3687,10342,361,4294960572,736,16708,640,4294967253,4294967194,4294967098,549,14919,7550,227,199,33
182111177,151,4294965412,4294951834,3754,10201,317,4294960800,741,16742,591,4294967260,4294967139,4294967107,550,14959,7507,197,175,28
182117177,134,4294965632,4294951822,3644,9880,289,4294961001,743,16732,726,4294967251,4294967138,4294967105,523,14930,7546,192,176,26
182123177,517,4294965881,4294951925,3766,9399,266,4294961166,787,16734,567,4294967261,4294967139,4294967136,530,14910,7414,200,175,23
182129177,544,4294966108,4294952055,3990,8717,277,4294961302,813,16815,567,4294967225,4294967157,4294967096,595,14919,7527,222,184,22
182135177,174,4294966144,4294952051,4216,7990,287,4294961396,781,16782,611,4294967217,4294967160,4294967116,531,14964,7425,195,224,28
182141177,287,4294966104,4294952001,4147,7206,294,4294961444,770,16796,601,4294967176,4294967147,4294967119,528,14963,7427,187,253,40
182147177,103,4294966029,4294951817,4195,6517,204,4294961464,737,16769,606,4294967137,4294967136,4294967139,561,14968,7442,197,210,11
182153177,4294966652,4294966059,4294951516,4202,5737,139,4294961435,732,16764,618,4294967113,4294967115,4294967129,551,14948,7436,181,229,23
182159177,4294966287,4294966434,4294951188,4432,5314,4294967261,4294961361,759,16709,513,4294967094,4294967127,4294967144,619,14962,7414,184,234,22
182165177,4294966419,4294966507,4294950851,4726,4884,4294967248,4294961290,730,16764,571,4294967083,4294967141,4294967122,651,14973,7534,200,232,6
182171177,4294966058,4294966494,4294950549,4957,4528,4294967147,4294961152,724,16727,596,4294967093,4294967129,4294967149,569,14950,7488,234,253,18
182177177,4294965755,4294966406,4294950355,4944,4283,4294967118,4294961066,679,16744,590,4294967068,4294967130,4294967134,588,14905,7493,257,278,23
182183177,4294966236,4294966367,4294950319,4941,4312,4294967029,4294961010,752,16705,597,4294967074,4294967116,4294967138,612,14931,7517,251,277,21
182189177,4294966565,4294966414,4294950381,4721,4451,4294966858,4294961035,763,16723,673,4294967096,4294967118,4294967150,554,14975,7384,223,255,14
182195177,4294966526,4294966758,4294950420,4731,4659,4294966703,4294961137,779,16679,613,4294967104,4294967124,4294967142,620,14943,7481,217,252,4294967295
182201177,4294966775,4294966876,4294950678,4886,4932,4294966203,4294961291,747,16718,651,4294967109,4294967123,4294967148,546,14946,7491,196,261,7
182207177,4294967026,586,4294950895,5109,5013,291,4294961420,738,16732,672,4294967159,4294967088,4294967143,550,14952,7465,199,254,4294967281
182213177,4294966818,4294967113,4294950724,5207,5756,532,4294961476,691,16785,621,4294967207,4294967102,4294967129,516,14953,7480,167,245,4294967282
182219177,4294966910,4294966740,4294951033,5174,6847,4294967102,4294961511,755,16745,636,4294967246,4294967103,4294967160,558,14986,7390,116,251,4294967265
182225177,87,4294966720,4294951390,5159,7510,4294966447,4294961646,754,16798,621,4294967259,4294967112,4294967196,514,15014,7386,113,243,4294967289
182231177,45,4294966833,4294951700,5116,7803,4294965973,4294961918,726,16777,603,4294967283,4294967123,4294967179,528,14981,7410,86,227,4294967282
182237177,4294967284,4294967188,4294951982,5106,7761,4294965848,4294962225,754,16765,589,4294967268,4294967111,4294967186,520,14949,7419,85,240,2
182243177,362,85,4294952177,5164,7307,4294966097,4294962494,778,16797,484,4294967241,4294967102,4294967197,550,14957,7367,83,254,6
182249177,443,202,4294952183,5276,6556,4294966392,4294962686,774,16740,505,4294967183,4294967118,4294967193,536,14986,7392,64,281,3
182255177,156,241,4294952079,5349,5782,4294966553,4294962887,745,16773,519,4294967166,4294967124,4294967199,535,14952,7426,73,257,4294967295
182261177,339,525,4294951918,5550,5020,4294966569,4294963083,752,16820,481,4294967122,4294967134,4294967167,507,14994,7437,72,279,4294967266
182267177,561,697,4294951633,5637,3827,4294966364,4294963275,712,16746,547,4294967092,4294967127,4294967188,510,14954,7465,78,267,4294967281
182273177,100,1395,4294950934,5975,3200,4294966650,4294963442,721,16753,614,4294967075,4294967154,4294967207,516,14930,7443,117,285,4294967295
182279177,4294967279,1635,4294950555,6274,3447,476,4294963595,671,16713,660,4294967089,4294967179,4294967209,496,14993,7427,143,292,4294967285
182285177,281,1257,4294950627,6550,3354,1044,4294963580,756,16748,537,4294967108,4294967198,4294967220,558,14982,7402,140,299,4294967291
182291177,83,886,4294950666,6535,2883,1085,4294963497,706,16682,630,4294967128,4294967160,4294967199,504,14983,7447,141,252,4294967286
182297177,4294967109,773,4294950713,6426,2390,1201,4294963439,671,16716,599,4294967160,4294967162,4294967184,517,14998,7430,107,248,4294967279
182303177,41,546,4294950841,6288,1868,1421,4294963362,700,16733,620,4294967181,4294967155,4294967179,531,14939,7483,142,275,24
182309177,4294967286,306,4294950909,6204,1425,1444,4294963263,706,16746,615,4294967235,4294967155,4294967189,510,14977,7539,160,278,14
182315177,4294966896,213,4294951008,6183,1100,1452,4294963200,662,16708,607,4294967249,4294967155,4294967202,539,14943,7382,175,277,14
182321177,4294967118,210,4294951124,6205,959,1550,4294963134,716,16673,608,4294967282,4294967143,4294967183,510,14938,7445,130,265,22
182327177,68,218,4294951271,6060,951,1637,4294963115,735,16743,643,4294967284,4294967135,4294967199,516,15003,7398,124,234,25
182333177,4294967109,271,4294951372,5877,985,1684,4294963153,750,16740,568,4294967258,4294967137,4294967176,500,14939,7518,147,228,45
182339177,30,321,4294951462,5745,1155,1633,4294963231,738,16682,580,4294967204,4294967150,4294967134,523,14941,7347,116,209,39
182345177,638,413,4294951613,5491,1295,1468,4294963365,728,16691,744,4294967177,4294967176,4294967148,507,14978,7431,120,168,27
182351177,620,665,4294951655,5460,1477,1191,4294963545,690,16753,682,4294967165,4294967166,4294967123,550,14986,7388,107,133,24
182357177,453,1110,4294951647,5516,1618,883,4294963821,665,16797,638,4294967150,4294967160,4294967115,523,15045,7454,107,152,52
182363177,708,1470,4294951556,5765,1729,648,4294964161,658,16799,602,4294967141,4294967148,4294967108,568,14941,7440,97,123,49
182369177,581,1703,4294951421,6038,1852,533,4294964450,758,16772,683,4294967119,4294967120,4294967094,587,14906,7443,100,135,49
182375177,4294967051,1731,4294951418,6263,2095,503,4294964628,759,16769,640,4294967093,4294967137,4294967095,580,14930,7496,103,148,24
182381177,4294966613,1606,4294951431,6187,2432,482,4294964680,755,16707,678,4294967116,4294967170,4294967130,554,14898,7546,101,173,50
182387177,4294966435,1370,4294951429,5957,2775,503,4294964674,727,16656,700,4294967130,4294967197,4294967129,545,14857,7522,132,147,51
182393177,4294966090,1085,4294951398,5957,2974,555,4294964617,673,16645,661,4294967100,4294967186,4294967142,657,14868,7484,143,111,56
182399177,4294966178,854,4294951412,5828,3080,575,4294964581,672,16687,596,4294967083,4294967167,4294967116,596,14942,7513,202,155,45
182405177,4294966693,721,4294951458,5977,3030,631,4294964569,743,16639,622,4294967071,4294967122,4294967102,609,14944,7548,213,211,49
182411177,4294966947,730,4294951518,6084,2854,672,4294964532,737,16657,566,4294967058,4294967164,4294967053,583,14942,7484,204,241,35
182417177,4294967151,830,4294951520,6265,2641,640,4294964547,717,16719,589,4294967086,4294967156,4294967041,574,14949,7484,202,192,54
182423177,502,1137,4294951475,6358,2331,610,4294964592,708,16742,524,4294967122,4294967166,4294967052,560,14908,7438,208,172,56
182429177,714,1505,4294951476,6509,2005,530,4294964674,682,16755,600,4294967151,4294967177,4294967065,578,14958,7510,193,200,55
182435177,455,1773,4294951426,6728,1645,557,4294964794,691,16775,602,4294967178,4294967164,4294967069,619,14991,7463,203,233,43
182441177,644,1892,4294951427,6607,1307,607,4294964859,743,16809,533,4294967193,4294967140,4294967074,592,14913,7540,180,240,42
182447177,629,1780,4294951404,6428,1025,641,4294964991,751,16728,596,4294967201,4294967113,4294967081,598,15021,7474,181,243,34
182453177,4,1656,4294951493,6155,862,731,4294965134,748,16765,628,4294967208,4294967144,4294967094,616,14975,7515,145,228,28
182459177,4294967137,1471,4294951660,6011,809,837,4294965270,718,16771,545,4294967185,4294967142,4294967099,594,14961,7526,117,199,18
182465177,187,1300,4294951881,5842,830,908,4294965375,739,16786,639,4294967175,4294967137,4294967114,616,14963,7467,138,211,23
182471177,73,1159,4294951958,5899,847,975,4294965472,688,16755,582,4294967151,4294967171,4294967113,617,14979,7524,115,221,27
182477177,4294967187,1196,4294952018,6039,833,988,4294965451,737,16788,580,4294967093,4294967150,4294967119,572,14996,7572,60,209,12
182483177,170,1256,4294952041,6293,800,979,4294965438,715,16724,600,4294967082,4294967142,4294967124,556,14911,7482,69,200,15
182489177,130,1205,4294951927,6312,722,933,4294965398,717,16730,631,4294967044,4294967162,4294967134,544,14920,7571,79,245,23
182495177,4294967087,1285,4294951699,6309,635,818,4294965422,681,16707,612,4294967065,4294967146,4294967148,648,14935,7501,99,247,29
182501177,53,1424,4294951365,6191,462,726,4294965589,713,16673,593,4294967056,4294967162,4294967134,566,14949,7421,107,266,9
182507177,125,1696,4294951035,6399,228,601,4294965920,715,16705,658,4294967038,4294967145,4294967122,476,14992,7498,99,283,15
182513177,4294966764,2001,4294950750,6804,4294967180,531,4294966436,713,16721,642,4294967087,4294967135,4294967126,563,14975,7470,126,257,20
182519177,4294966184,2210,4294950539,7395,4294966742,510,4294967017,705,16686,541,4294967122,4294967130,4294967112,578,14927,7472,166,235,29
182525177,4294966335,2319,4294950387,7861,4294966245,456,401,673,16758,561,4294967189,4294967110,4294967112,578,15032,7444,156,270,45
182531177,4294966934,2346,4294950113,8219,4294965707,469,958,677,16803,568,4294967208,4294967150,4294967108,531,14963,7479,99,242,14
182537177,662,2170,4294949663,8143,4294965080,473,1326,666,16730,589,4294967253,4294967148,4294967135,583,14984,7462,122,208,15
182543177,1729,1813,4294949240,7571,4294964472,492,1472,685,16761,584,4294967264,4294967142,4294967151,562,14953,7499,143,193,20
182549177,1736,1482,4294949069,6920,4294964086,542,1371,661,16786,628,4294967260,4294967134,4294967186,619,14895,7494,148,237,18
182555177,844,1108,4294949183,6159,4294964018,668,1112,706,16875,673,4294967215,4294967116,4294967188,547,14922,7459,177,282,26
182561177,4294967175,868,4294949516,5825,4294964270,875,825,692,16767,604,4294967210,4294967138,4294967194,562,14959,7485,182,304,9
182567177,4294966357,827,4294950001,5655,4294964791,1086,593,728,16725,586,4294967172,4294967188,4294967184,509,14902,7410,145,264,14
182573177,4294965446,875,4294950412,5750,4294965436,1199,420,702,16704,644,4294967107,4294967214,4294967176,506,14941,7389,185,252,14
182579177,4294965266,1095,4294950921,5896,4294966141,1114,324,692,16703,650,4294967042,4294967215,4294967170,545,14952,7440,169,248,16
182585177,4294965885,1428,4294951331,5968,4294966786,888,368,692,16688,657,4294967026,4294967208,4294967171,536,14967,7427,174,224,33
182591177,4294966233,1628,4294951729,6080,100,529,558,669,16740,618,4294967016,4294967168,4294967176,543,14929,7497,183,214,6
182597177,4294966481,1745,4294952093,6141,707,127,818,646,16699,695,4294967051,4294967148,4294967167,555,15035,7408,171,192,40
182603177,4294967034,1745,4294952304,6263,1384,4294967032,1133,638,16735,746,4294967093,4294967136,4294967152,545,15064,7480,149,187,8
182609177,4294967079,1752,4294952489,6114,2104,4294966690,1486,701,16705,690,4294967146,4294967154,4294967133,624,15005,7530,133,186,24
182615177,4294966646,1764,4294952530,6022,2694,4294966365,2004,725,16721,619,4294967177,4294967137,4294967136,588,14963,7478,148,194,23
182621177,4294966659,1854,4294952499,6143,3016,4294966120,2555,738,16763,640,4294967221,4294967096,4294967136,555,14958,7600,170,222,12
182627177,4294966974,1887,4294952339,6200,2998,4294965974,3061,701,16756,602,4294967269,4294967065,4294967132,564,14971,7523,163,220,5
182633177,4294966685,1737,4294952054,6221,2707,4294965886,3397,693,16771,670,4294967273,4294967065,4294967176,617,15027,7481,166,223,12
182639177,4294966663,1631,4294951807,6291,2220,4294965847,3528,677,16788,604,4294967274,4294967069,4294967183,619,14989,7495,157,202,10
182645177,4294967170,1514,4294951481,6370,1489,4294965954,3535,694,16765,651,4294967255,4294967099,4294967184,584,14943,7459,146,223,12
182651177,4294967160,1554,4294951075,6444,527,4294966148,3490,707,16699,638,4294967196,4294967112,4294967174,589,14946,7487,151,197,6
182657177,4294967158,1590,4294950609,6545,4294966755,4294966404,3448,651,16687,607,4294967105,4294967117,4294967166,550,14945,7412,157,203,4294967295
182663177,299,1703,4294950459,6815,4294965778,4294966685,3356,707,16640,637,4294967066,4294967111,4294967180,494,14918,7414,186,230,12
182669177,401,1815,4294950340,6917,4294964923,4294967046,3269,715,16630,601,4294967029,4294967141,4294967134,602,14916,7413,188,241,34
182675177,218,1815,4294950499,6884,4294964237,71,3227,662,16713,611,4294967018,4294967161,4294967094,568,14975,7403,167,254,21
182681177,429,1726,4294950705,6657,4294963739,303,3189,629,16731,659,4294967023,4294967148,4294967107,553,14985,7478,157,276,7
182687177,693,1610,4294950934,6547,4294963443,453,3192,630,16784,691,4294967038,4294967151,4294967082,542,14943,7403,137,297,13
182693177,509,1459,4294951217,6388,4294963253,508,3271,617,16787,676,4294967089,4294967154,4294967096,523,14950,7539,115,322,3
182699177,471,1283,4294951465,6295,4294963133,501,3426,657,16748,699,4294967130,4294967139,4294967135,524,14973,7435,105,298,4
182705177,773,1112,4294951570,6181,4294963119,422,3613,648,16779,606,4294967204,4294967145,4294967188,567,14925,7400,101,307,16
182711177,498,978,4294951615,6096,4294963132,288,3834,582,16712,615,4294967261,4294967194,4294967163,557,14979,7461,85,328,21
182717177,149,895,4294951577,5974,4294963254,72,4068,652,16704,573,4294967259,4294967154,4294967175,530,14920,7465,76,323,3
182723177,360,897,4294951485,5887,4294963406,4294967202,4285,617,16737,673,4294967256,4294967155,4294967182,538,14927,7424,76,346,15
182729177,237,888,4294951273,5841,4294963582,4294966956,4476,650,16728,669,4294967238,4294967142,4294967187,559,14929,7482,53,356,2
182735177,4294967268,904,4294951066,5852,4294963841,4294966676,4665,658,16726,693,4294967222,4294967132,4294967209,608,14936,7496,68,384,6
182741177,280,981,4294950852,5890,4294964127,4294966475,4903,643,16800,687,4294967195,4294967142,4294967229,577,14957,7421,62,392,32
182747177,417,926,4294950733,5961,4294964399,4294966272,5153,701,16723,662,4294967174,4294967148,4294967205,592,14936,7506,98,399,9
182753177,4294967198,932,4294950670,6010,4294964575,4294966026,5348,696,16779,651,4294967144,4294967157,4294967174,564,14969,7521,117,409,26
182759177,4294967067,815,4294950711,6007,4294964625,4294965923,5504,751,16746,603,4294967116,4294967171,4294967170,499,14965,7411,167,402,26
182765177,4294967295,768,4294950709,5970,4294964687,4294965673,5630,666,16653,655,4294967084,4294967158,4294967183,534,14927,7437,161,383,24
182771177,4294966890,567,4294950839,5821,4294964781,4294965521,5701,671,16666,619,4294967077,4294967163,4294967166,541,14982,7456,175,366,52
182777177,4294966518,581,4294950891,5671,4294964876,4294965304,5730,687,16750,693,4294967064,4294967169,4294967165,487,15032,7506,232,354,46
182783177,4294966833,568,4294950998,5582,4294964939,4294965314,5762,653,16766,647,4294967095,4294967164,4294967148,525,14949,7437,223,332,41
182789177,4294966883,514,4294951033,5450,4294964951,4294965270,5770,659,16733,608,4294967106,4294967153,4294967162,534,14940,7471,246,295,44
182795177,4294966660,525,4294951111,5379,4294965004,4294965296,5836,642,16742,661,4294967137,4294967143,4294967175,541,14957,7418,267,286,52
182801177,4294967027,418,4294951214,5328,4294965023,4294965495,5916,622,16727,611,4294967146,4294967148,4294967184,531,14965,7546,274,272,41
182807177,139,298,4294951375,5285,4294964949,4294965748,6034,667,16733,623,4294967182,4294967135,4294967168,534,14948,7531,238,229,30
182813177,4294967112,213,4294951466,5263,4294964736,4294965986,6152,610,16730,673,4294967188,4294967155,4294967178,597,14941,7536,233,185,28
182819177,4294967233,132,4294951575,5139,4294964459,4294966318,6278,590,16701,702,4294967176,4294967149,4294967170,591,14898,7504,222,144,17
182825177,532,4294967170,4294951505,5084,4294964381,4294966738,6433,622,16702,714,4294967189,4294967157,4294967181,523,14928,7437,210,115,8
182831177,358,4294966956,4294951644,4887,4294964273,4294967002,6570,648,16609,629,4294967177,4294967144,4294967192,569,14906,7533,201,95,23
182837177,186,4294966887,4294951764,4868,4294963932,4294967250,6653,701,16649,673,4294967161,4294967148,4294967166,540,14930,7497,162,80,20
182843177,466,4294966589,4294951753,4691,4294963456,194,6700,698,16713,699,4294967170,4294967153,4294967173,613,14894,7521,129,94,16
182849177,372,4294966504,4294951629,4549,4294962901,469,6767,698,16709,634,4294967188,4294967131,4294967148,572,14981,7440,141,68,10
182855177,4294967176,4294966595,4294951486,4322,4294962259,702,6835,654,16757,621,4294967191,4294967156,4294967139,554,14952,7387,141,70,10
182861177,162,4294966602,4294951348,4334,4294961615,929,6915,673,16738,608,4294967165,4294967140,4294967094,581,14938,7432,129,99,4294967289
182867177,478,4294966763,4294951183,4246,4294961071,1158,6941,643,16756,648,4294967166,4294967158,4294967117,593,14965,7404,108,119,4294967293
182873177,70,4294966826,4294951033,4263,4294960598,1303,6935,635,16726,526,4294967178,4294967164,4294967139,596,15022,7374,124,134,4294967293
182879177,45,4294966780,4294950878,4316,4294960156,1438,6918,631,16759,593,4294967182,4294967171,4294967154,563,15017,7429,125,156,4294967289
182885177,263,4294966583,4294950840,4288,4294959857,1523,6843,602,16775,639,4294967170,4294967158,4294967191,500,15026,7458,106,180,4294967278
182891177,4294967159,4294966368,4294950872,4239,4294959722,1595,6770,704,16786,702,4294967173,4294967129,4294967218,550,15004,7461,107,223,4294967277
182897177,4294966903,4294966030,4294950904,4019,4294959733,1656,6722,690,16812,653,4294967163,4294967129,4294967215,636,14980,7448,120,228,2
182903177,47,4294965654,4294950965,3738,4294959891,1659,6657,694,16746,559,4294967149,4294967120,4294967211,560,14984,7426,126,266,4294967272
182909177,149,4294965357,4294950988,3633,4294960132,1595,6655,675,16685,498,4294967126,4294967136,4294967207,608,15000,7443,146,267,4294967276
182915177,4294967014,4294965133,4294951082,3590,4294960389,1491,6646,640,16706,654,4294967129,4294967193,4294967182,571,14940,7449,140,301,4294967268
182921177,40,4294965030,4294951177,3563,4294960614,1367,6628,598,16684,528,4294967115,4294967178,4294967182,577,14969,7443,151,336,4294967293
182927177,474,4294964952,4294951237,3426,4294960834,1239,6645,615,16727,560,4294967111,4294967177,4294967168,543,14900,7429,135,352,4294967285
182933177,180,4294964921,4294951379,3237,4294961028,1071,6686,628,16687,579,4294967107,4294967162,4294967144,557,15007,7488,151,340,4294967288
182939177,284,4294964985,4294951482,3107,4294961213,898,6736,629,16727,662,4294967093,4294967144,4294967125,549,14938,7440,119,354,4294967292
182945177,901,4294965033,4294951536,2931,4294961391,694,6724,653,16773,707,4294967107,4294967146,4294967145,573,14937,7420,86,325,5
182951177,936,4294965095,4294951581,2818,4294961487,479,6727,635,16717,642,4294967114,4294967158,4294967135,575,14949,7387,74,328,4294967287
182957177,779,4294965201,4294951629,2666,4294961552,232,6725,656,16748,699,4294967144,4294967163,4294967157,510,14948,7421,65,324,2
182963177,1026,4294965205,4294951571,2506,4294961558,33,6721,594,16761,681,4294967153,4294967190,4294967164,538,14921,7444,71,368,4294967268
182969177,818,4294965286,4294951539,2468,4294961603,4294967135,6741,624,16768,646,4294967180,4294967182,4294967158,527,14920,7425,91,373,4294967285
182975177,182,4294965226,4294951440,2332,4294961654,4294966966,6752,647,16764,685,4294967177,4294967150,4294967183,489,14934,7383,79,356,1
182981177,138,4294965122,4294951362,2273,4294961701,4294966785,6757,570,16741,728,4294967161,4294967131,4294967211,529,14880,7472,57,337,4294967283
182987177,133,4294965166,4294951311,2343,4294961782,4294966607,6791,689,16731,705,4294967147,4294967135,4294967191,502,14983,7480,79,311,4294967281
182993177,4294966761,4294965094,4294951312,2288,4294961877,4294966509,6791,625,16740,632,4294967147,4294967141,4294967212,480,14954,7464,80,283,12
182999177,4294966534,4294965003,4294951383,2326,4294961991,4294966387,6809,628,16703,639,4294967121,4294967159,4294967185,542,14937,7433,81,264,12
183005177,4294967010,4294964929,4294951452,2358,4294962139,4294966341,6767,670,16775,690,4294967096,4294967147,4294967160,476,14945,7446,122,243,14
183011177,4294967243,4294964842,4294951486,2236,4294962355,4294966277,6686,676,16738,666,4294967100,4294967138,4294967164,537,14999,7425,126,214,35
183017177,474,4294964766,4294951569,2069,4294962556,4294966267,6565,673,16720,690,4294967089,4294967151,4294967164,577,14926,7474,141,235,22
183023177,1672,4294964728,4294951555,1890,4294962678,4294966291,6497,666,16723,643,4294967112,4294967150,4294967184,544,14923,7516,143,271,29
183029177,1727,4294964815,4294951650,1870,4294962742,4294966314,6489,667,16768,675,4294967129,4294967134,4294967191,547,14922,7481,181,272,9
183035177,1299,4294964938,4294951616,2092,4294962704,4294966463,6554,605,16703,633,4294967170,4294967101,4294967205,521,14951,7455,181,276,22
183041177,806,4294964885,4294951677,1943,4294962695,4294966730,6655,624,16754,666,4294967177,4294967114,4294967214,551,14965,7425,195,270,47
183047177,360,4294964790,4294951696,2025,4294962707,4294966954,6736,636,16750,732,4294967220,4294967130,4294967165,539,14986,7468,185,253,35
183053177,4294966761,4294964624,4294951769,1889,4294962768,4294967123,6773,610,16785,608,4294967224,4294967119,4294967157,516,14975,7461,186,247,51
183059177,4294966614,4294964420,4294951871,1770,4294962825,58,6789,638,16697,694,4294967200,4294967130,4294967148,512,14930,7354,197,237,55
183065177,4294967146,4294964267,4294951919,1527,4294962946,318,6729,634,16729,613,4294967183,4294967149,4294967161,504,14940,7424,210,228,31
183071177,4294966989,4294964068,4294951982,1346,4294963122,550,6622,585,16815,668,4294967164,4294967126,4294967185,493,15005,7437,176,222,49
183077177,4294966745,4294964054,4294952079,1325,4294963336,738,6536,577,16789,660,4294967113,4294967126,4294967185,540,15011,7419,147,199,32
183083177,4294967190,4294964097,4294952047,1362,4294963526,925,6486,630,16777,638,4294967079,4294967145,4294967178,559,14973,7370,127,218,47
183089177,4294967210,4294964099,4294952073,1444,4294963622,1080,6522,644,16787,672,4294967063,4294967150,4294967196,582,14967,7507,137,192,30
183095177,4294966791,4294964095,4294952059,1424,4294963682,1273,6559,636,16666,641,4294967008,4294967169,4294967206,573,14993,7458,124,200,26
183101177,4294967038,4294964030,4294951987,1297,4294963763,1446,6610,656,16717,700,4294967000,4294967186,4294967184,563,15005,7427,115,195,28
183107177,9,4294963852,4294951924,1192,4294963804,1550,6661,671,16666,633,4294966995,4294967154,4294967179,570,14973,7447,90,167,52
183113177,4294967036,4294963702,4294951977,1016,4294963802,1647,6730,621,16667,578,4294967014,4294967162,4294967190,586,14950,7428,77,144,31
183119177,4294967209,4294963438,4294952010,696,4294963754,1850,6827,602,16711,634,4294967048,4294967170,4294967181,581,14999,7415,66,137,46
183125177,373,4294963329,4294951998,501,4294963658,2021,6910,615,16696,632,4294967107,4294967158,4294967148,591,14989,7419,75,128,24
183131177,167,4294963281,4294952045,412,4294963503,2019,6989,642,16702,644,4294967135,4294967172,4294967131,573,14965,7416,101,141,11
183137177,4294967124,4294963346,4294952153,547,4294963294,1838,7017,613,16684,639,4294967136,4294967160,4294967127,576,14959,7444,119,135,16
183143177,46,4294963328,4294952119,754,4294963060,1829,7128,603,16670,658,4294967167,4294967165,4294967121,557,14984,7523,137,132,32
183149177,4294967022,4294963362,4294951920,803,4294962864,1901,7141,687,16693,712,4294967184,4294967186,4294967119,610,14998,7452,137,144,32
183155177,4294966273,4294963100,4294951755,751,4294962731,1872,7092,643,16692,689,4294967191,4294967162,4294967103,568,14993,7494,139,131,23
183161177,4294966272,4294962902,4294951622,739,4294962665,1898,6952,676,16664,720,4294967163,4294967190,4294967113,571,14981,7439,150,136,39
183167177,4294966334,4294962617,4294951599,553,4294962675,1886,6783,708,16686,747,4294967105,4294967207,4294967097,603,14971,7448,149,156,9
183173177,4294965953,4294962524,4294951595,446,4294962749,1894,6598,666,16741,695,4294967069,4294967257,4294967076,615,14964,7414,203,142,23
183179177,4294966262,4294962296,4294951650,398,4294962912,1896,6415,632,16707,614,4294967053,4294967225,4294967038,613,14990,7468,184,147,15
183185177,4294967126,4294962177,4294951746,323,4294963045,1730,6210,593,16709,679,4294967065,4294967176,4294967028,575,14976,7509,151,129,14
183191177,4294967025,4294962096,4294951861,165,4294963272,1473,6023,586,16610,799,4294967075,4294967201,4294967058,584,14944,7621,110,93,2
183197177,4294966601,4294962047,4294951948,110,4294963532,1288,5878,595,16619,728,4294967079,4294967235,4294967088,567,14931,7538,125,90,2
183203177,4294966582,4294962064,4294952026,4294967280,4294963881,1305,5776,613,16699,569,4294967098,4294967213,4294967067,618,14874,7499,135,134,8
183209177,4294966395,4294962016,4294952100,4294967176,4294964224,1226,5729,591,16747,520,4294967118,4294967169,4294967005,568,14965,7504,120,163,6
183215177,4294966645,4294962051,4294952115,4294967162,4294964507,1122,5707,624,16723,635,4294967136,4294967182,4294966994,565,14949,7527,123,172,4294967295
183221177,793,4294962160,4294952114,4294967162,4294964659,921,5699,602,16792,702,4294967205,4294967219,4294967020,569,14956,7434,110,203,4294967288
183227177,1720,4294962121,4294952210,4294967275,4294964740,858,5730,617,16742,765,4294967211,4294967227,4294967021,538,14927,7499,96,228,14
183233177,1727,4294962035,4294952373,4294967292,4294964759,777,5752,620,16798,699,4294967223,4294967218,4294967047,525,14917,7451,98,264,4294967281
183239177,1209,4294961863,4294952548,130,4294964687,741,5733,616,16753,696,4294967209,4294967162,4294967048,492,14927,7416,96,284,4294967293
183245177,611,4294961516,4294952768,6,4294964598,691,5712,645,16804,778,4294967193,4294967156,4294967081,597,14925,7419,66,272,9
183251177,4294966575,4294961331,4294952943,4294967227,4294964512,645,5633,658,16773,791,4294967136,4294967142,4294967068,576,14959,7406,62,295,4294967279
183257177,4294965559,4294961201,4294953048,4294966953,4294964479,586,5529,634,16772,732,4294967086,4294967196,4294967069,522,14922,7491,71,333,4294967291
183263177,4294965797,4294961155,4294953031,4294966837,4294964549,651,5455,658,16750,688,4294967025,4294967199,4294967055,539,14925,7506,75,333,10
183269177,4294966053,4294961334,4294952995,4294966672,4294964735,779,5411,555,16736,697,4294966993,4294967192,4294967071,543,14961,7529,77,363,4294967289
183275177,4294965986,4294961355,4294952942,4294966589,4294964904,861,5396,579,16746,677,4294966988,4294967162,4294967064,535,14875,7503,51,368,1
183281177,4294966442,4294961504,4294952843,4294966642,4294965041,923,5355,567,16809,711,4294967001,4294967179,4294967066,580,14885,7504,78,388,3
183287177,4294966908,4294961462,4294952747,4294966682,4294965139,925,5329,582,16739,638,4294967037,4294967173,4294967094,562,14915,7513,109,405,8
183293177,4294966765,4294961462,4294952651,4294966799,4294965375,961,5254,589,16777,696,4294967078,4294967161,4294967108,570,14960,7460,103,411,15
183299177,4294967067,4294961259,4294952797,4294966655,4294965607,918,5089,625,16752,659,4294967118,4294967166,4294967114,531,14964,7506,92,410,2
183305177,466,4294961030,4294953028,4294966692,4294965612,667,4835,596,16784,652,4294967150,4294967135,4294967125,584,14889,7516,111,402,4294967294
183311177,568,4294961025,4294953134,4294966590,4294965462,260,4603,641,16820,612,4294967211,4294967120,4294967142,566,14901,7478,117,409,19
183317177,316,4294961233,4294953202,4294966508,4294965478,160,4417,590,16846,604,4294967242,4294967135,4294967130,508,14948,7462,125,379,25
183323177,766,4294961182,4294953218,4294966508,4294965623,419,4318,607,16791,603,4294967224,4294967158,4294967143,528,14971,7461,165,373,10
183329177,803,4294960980,4294953388,4294966482,4294965757,634,4161,557,16712,564,4294967181,4294967185,4294967147,490,14947,7435,144,348,17
183335177,310,4294960931,4294953456,4294966367,4294965924,668,3975,516,16689,563,4294967129,4294967184,4294967155,529,14973,7414,153,293,25
183341177,286,4294960893,4294953554,4294966268,4294966079,694,3823,534,16705,623,4294967093,4294967187,4294967139,502,14943,7397,166,274,36
183347177,314,4294960901,4294953644,4294966312,4294966232,705,3689,610,16653,648,4294967070,4294967165,4294967135,588,14910,7521,161,248,23
183353177,4294967051,4294960817,4294953725,4294966244,4294966292,577,3552,606,16692,650,4294967059,4294967190,4294967118,552,14953,7502,162,214,27
183359177,4294966919,4294960763,4294953737,4294966244,4294966323,401,3424,622,16735,681,4294967087,4294967202,4294967112,536,14956,7432,152,179,43
183365177,4294967222,4294960751,4294953731,4294966158,4294966421,352,3345,648,16717,743,4294967117,4294967200,4294967103,614,14906,7517,161,160,21
183371177,4294967042,4294960619,4294953850,4294966217,4294966537,295,3161,551,16720,721,4294967133,4294967186,4294967100,511,14942,7531,177,139,23
183377177,4294966775,4294960574,4294953947,4294966220,4294966644,328,2984,578,16805,695,4294967205,4294967174,4294967136,544,14913,7538,159,153,11
183383177,4294967127,4294960415,4294954139,4294966296,4294966730,466,2773,598,16724,754,4294967260,4294967147,4294967161,535,14951,7454,141,116,21
183389177,4294967126,4294960222,4294954252,4294966176,4294966646,267,2527,612,16803,701,4294967286,4294967132,4294967166,584,14944,7550,174,105,36
183395177,4294966717,4294960268,4294954203,4294966102,4294966688,131,2281,606,16787,722,4294967290,4294967130,4294967160,556,14949,7476,180,127,43
183401177,4294966848,4294960220,4294954188,4294966150,4294966794,196,2023,576,16779,760,4294967251,4294967154,4294967166,525,15005,7421,163,123,4
183407177,4294967201,4294960264,4294954159,4294966001,4294966861,263,1807,549,16766,731,4294967200,4294967194,4294967182,546,14982,7490,143,122,4294967293
183413177,4294967045,4294960250,4294954148,4294965960,4294966932,367,1590,453,16795,736,4294967148,4294967201,4294967171,550,14933,7524,154,145,20
183419177,4294967099,4294960220,4294954217,4294965993,4294967053,461,1320,465,16751,735,4294967096,4294967175,4294967179,602,14970,7356,149,159,39
183425177,161,4294960141,4294954211,4294965943,4294967196,504,1018,519,16756,768,4294967047,4294967157,4294967185,550,15050,7462,132,211,40
183431177,4294967246,4294960053,4294954283,4294965904,53,546,700,502,16732,809,4294967017,4294967166,4294967176,539,15028,7461,152,237,25
183437177,4294966999,4294959862,4294954372,4294966002,241,586,318,553,16760,848,4294966979,4294967165,4294967170,493,14944,7472,155,215,24
183443177,87,4294959715,4294954531,4294965990,470,548,4294967145,574,16665,771,4294966994,4294967150,4294967171,552,14997,7496,162,223,35
183449177,100,4294959627,4294954672,4294965952,760,528,4294966693,639,16669,741,4294966988,4294967155,4294967175,526,14952,7404,147,263,26
183455177,4294967123,4294959669,4294954777,4294965827,1147,399,4294966159,593,16682,702,4294967044,4294967183,4294967167,573,14887,7485,166,230,34
183461177,194,4294959714,4294954821,4294965754,1600,256,4294965660,565,16692,740,4294967100,4294967169,4294967165,542,14912,7446,189,250,26
183467177,482,4294959794,4294954907,4294965748,2108,165,4294965201,515,16657,692,4294967142,4294967151,4294967147,540,14987,7439,176,253,18
183473177,4,4294959770,4294954892,4294965892,2594,111,4294964800,564,16712,738,4294967179,4294967133,4294967148,502,14929,7502,170,238,12
183479177,4294967234,4294959740,4294954868,4294965960,3037,101,4294964366,562,16743,822,4294967239,4294967114,4294967140,535,14913,7468,165,241,30
183485177,390,4294959754,4294954879,4294965837,3563,32,4294964005,576,16768,722,4294967249,4294967112,4294967154,554,14937,7507,173,266,36
183491177,369,4294959907,4294954939,4294965825,4057,4294967170,4294963610,610,16749,745,4294967253,4294967154,4294967155,517,14925,7485,160,286,32
183497177,268,4294960187,4294955014,4294965815,4534,4294967008,4294963281,575,16805,769,4294967237,4294967159,4294967133,580,14957,7465,149,291,40
183503177,703,4294960392,4294954870,4294966063,4871,4294966880,4294962992,607,16767,805,4294967224,4294967153,4294967153,553,14979,7441,149,281,12
183509177,682,4294960599,4294954795,4294966121,5177,4294966776,4294962683,535,16778,749,4294967194,4294967158,4294967169,569,14903,7372,135,276,38
183515177,235,4294960839,4294954781,4294966198,5466,4294966652,4294962381,543,16768,769,4294967138,4294967120,4294967164,614,15010,7357,152,277,2
183521177,230,4294961113,4294954625,4294966245,5779,4294966536,4294962107,576,16761,750,4294967094,4294967109,4294967169,583,15024,7474,156,245,23
183527177,173,4294961303,4294954405,4294966438,6020,4294966471,4294961866,630,16838,734,4294967048,4294967093,4294967129,545,14943,7464,135,236,6
183533177,4294966795,4294961425,4294954145,4294966594,6131,4294966438,4294961650,648,16794,654,4294966998,4294967091,4294967122,562,14928,7465,201,207,13
183539177,4294966472,4294961457,4294953898,4294966871,6171,4294966407,4294961461,632,16802,689,4294966988,4294967090,4294967132,575,15001,7531,170,233,13
183545177,4294966590,4294961502,4294953551,4294967065,6172,4294966427,4294961268,642,16752,710,4294966983,4294967094,4294967161,609,14924,7548,138,230,12
183551177,4294966256,4294961459,4294953184,7,6239,4294966427,4294961055,621,16796,641,4294966986,4294967098,4294967198,571,14925,7517,153,248,4294967289
183557177,4294965931,4294961388,4294953012,196,6289,4294966274,4294960750,572,16819,694,4294967039,4294967060,4294967230,570,14972,7473,132,234,23
183563177,4294966314,4294961425,4294952792,181,6318,4294966016,4294960451,553,16854,812,4294967091,4294967057,4294967283,556,14937,7478,157,232,33
183569177,4294966433,4294961557,4294952660,251,6338,4294965676,4294960129,627,16884,737,4294967124,4294967050,58,559,14936,7526,135,243,4
183575177,4294966113,4294961865,4294952541,552,6405,4294965393,4294959862,602,16895,751,4294967191,4294967021,90,591,14982,7534,145,239,9
183581177,4294966464,4294961981,4294952420,654,6435,4294965178,4294959643,594,16884,731,4294967250,4294967020,141,612,15005,7485,147,247,4
183587177,4294966801,4294962048,4294952366,676,6518,4294965227,4294959426,552,16869,731,6,4294967042,199,525,14940,7496,139,258,4294967287
183593177,4294966559,4294961909,4294952470,674,6700,4294965502,4294959281,558,16820,682,29,4294967066,255,516,14947,7497,106,253,4294967283
183599177,4294966639,4294961946,4294952416,547,6819,4294965375,4294959102,533,16838,608,5,4294967039,274,562,14950,7454,108,251,4294967293
183605177,4294967050,4294962203,4294952415,552,6999,4294965574,4294959130,553,16826,607,4294967258,4294967055,287,557,14860,7447,133,278,4294967281
183611177,4294966896,4294962057,4294952438,733,7011,4294965595,4294959150,614,16715,712,4294967188,4294967073,306,616,14890,7459,149,287,7
183617177,4294966760,4294962089,4294952428,812,6825,4294965536,4294959130,616,16667,582,4294967126,4294967057,297,620,14941,7402,160,304,4294967280
183623177,4294967200,4294962179,4294952420,942,6531,4294965323,4294959017,610,16639,515,4294967070,4294967137,293,579,14927,7482,157,311,4294967279
183629177,4294967269,4294962570,4294952228,916,6407,4294965137,4294958882,633,16608,634,4294967025,4294967175,260,576,14943,7451,137,290,4294967285
183635177,4294966994,4294962687,4294952109,868,6516,4294965234,4294958861,630,16617,784,4294967027,4294967192,233,579,14952,7474,106,297,4294967295
183641177,9,4294963130,4294952018,1079,6489,4294965233,4294958814,522,16589,754,4294967069,4294967199,204,550,14961,7426,99,280,0
183647177,227,4294963303,4294951895,1104,6443,4294965127,4294958754,588,16591,719,4294967131,4294967142,188,586,14967,7509,87,303,4294967266
183653177,4294967165,4294963766,4294951693,1379,6465,4294965312,4294958765,629,16664,829,4294967192,4294967077,184,508,14924,7475,115,277,4294967290
183659177,4294967154,4294963670,4294951603,1465,6549,4294965430,4294958878,670,16629,801,1,4294967083,164,548,14974,7472,111,277,4294967274
183665177,208,4294963506,4294951592,1709,6475,4294965124,4294958966,664,16638,767,84,4294967083,158,500,14971,7451,96,270,4294967274
183671177,4294967213,4294963629,4294951507,2010,6434,4294965215,4294958974,643,16705,769,150,4294967121,118,568,14995,7435,109,264,4294967252
183677177,4294966901,4294963437,4294951598,1956,6638,4294965146,4294958982,564,16691,705,172,4294967156,110,531,15006,7441,107,254,4294967261
183683177,35,4294963425,4294951708,1938,6806,4294964951,4294958910,561,16669,741,146,4294967152,90,555,14996,7466,108,241,4294967273
