t_us,ecg_corr,ax0,ay0,az0,gx0,gy0,gz0,ax1,ay1,az1,gx1,gy1,gz1,ax2,ay2,az2,gx2,gy2,gz2
12229177,4294967118,2321,4294952343,6531,348,175,293,4294967250,16553,124,4294966888,4294967118,4294967225,11785,4294964199,11871,157,236,36
12235177,4294967247,2294,4294952424,6525,370,202,267,4294967182,16767,52,4294966918,4294967045,4294967119,11817,4294964195,11912,166,242,17
12241177,151,2222,4294952398,6531,375,250,269,4294967212,16884,37,4294967032,4294967012,4294967078,11845,4294964222,11910,182,240,22
12247177,4294967075,2183,4294952377,6465,396,245,302,4294967217,16914,4294967236,4294967211,4294967071,4294967029,11784,4294964156,11868,151,245,4
12253177,4294966991,2186,4294952434,6451,426,255,314,4294967126,16931,37,60,4294967112,4294967043,11848,4294964228,11911,166,229,4294967284
12259177,44,2158,4294952378,6530,427,238,293,4294967043,16886,54,161,4294967183,4294967071,11830,4294964188,11921,149,227,4294967293
12265177,4294967178,2193,4294952376,6507,387,243,301,4294966978,16859,96,202,4294967187,4294967096,11863,4294964192,11844,163,219,4294967287
12271177,4294966888,2269,4294952379,6509,406,195,306,4294966976,16926,73,150,4294967113,4294967089,11837,4294964232,11944,158,222,4294967281
12277177,4294967226,2287,4294952360,6556,440,166,313,4294967042,16926,32,82,4294967053,4294967065,11831,4294964199,11889,162,228,4294967280
12283177,1,2356,4294952364,6581,472,158,314,4294967142,16915,65,4294967233,4294967060,4294967086,11880,4294964258,11883,148,215,4294967265
12289177,4294966977,2291,4294952373,6548,515,155,327,4294967135,16997,161,4294967051,4294967091,4294967073,11896,4294964197,11900,172,206,4294967263
12295177,4294967163,2321,4294952351,6516,598,178,319,4294967099,17024,123,4294966894,4294967107,4294967044,11881,4294964263,11905,191,220,4294967264
12301177,128,2306,4294952366,6491,668,209,316,4294967115,16975,165,4294966740,4294967103,4294967029,11861,4294964242,11864,194,191,4294967260
12307177,4294967121,2261,4294952420,6525,696,241,349,4294967051,16811,160,4294966630,4294967123,4294967072,11870,4294964300,11834,194,216,4294967263
12313177,4294967025,2238,4294952474,6514,693,241,324,4294966937,16742,228,4294966596,4294967130,4294967099,11839,4294964256,11868,178,208,4294967278
12319177,60,2183,4294952462,6617,646,210,320,4294967007,16623,206,4294966590,4294967123,4294967090,11908,4294964277,11801,188,184,4294967290
12325177,4294967200,2187,4294952462,6659,596,179,340,4294967078,16591,181,4294966616,4294967065,4294967091,11904,4294964288,11828,177,175,4294967277
12331177,4294966914,2215,4294952470,6546,521,155,310,4294967117,16565,159,4294966707,4294967034,4294967068,11871,4294964288,11838,165,228,4294967293
12337177,4294967235,2219,4294952385,6578,458,124,314,4294967182,16551,58,4294966838,4294967087,4294967047,11868,4294964295,11841,185,204,5
12343177,14,2278,4294952401,6561,432,128,336,4294967164,16576,132,4294966985,4294967116,4294967002,11926,4294964203,11899,180,226,4
12349177,4294966960,2296,4294952362,6584,432,149,343,4294967125,16661,153,4294967127,4294967116,4294966961,11857,4294964280,11854,175,208,4294967293
12355177,4294967179,2310,4294952414,6583,431,189,349,4294967150,16661,203,4294967250,4294967140,4294966948,11884,4294964217,11892,172,223,5
12361177,154,2269,4294952431,6514,437,206,349,4294967089,16697,115,55,4294967118,4294966960,11857,4294964234,11848,158,239,17
12367177,4294967111,2231,4294952453,6496,425,245,317,4294967095,16813,183,153,4294967104,4294966992,11848,4294964249,11866,153,252,4294967290
12373177,4294967003,2237,4294952366,6543,411,251,346,4294967090,16820,171,148,4294967086,4294966991,11853,4294964276,11857,139,248,8
12379177,104,2196,4294952377,6521,385,249,331,4294967121,16864,163,86,4294967087,4294966967,11809,4294964261,11940,139,257,4294967293
12385177,4294967274,2215,4294952327,6551,384,248,325,4294967062,16862,153,8,4294967092,4294966980,11828,4294964229,11856,123,259,17
12391177,4294967045,2211,4294952350,6567,396,207,309,4294967061,16900,255,4294967176,4294967110,4294966994,11847,4294964250,11906,129,236,29
12397177,65,2206,4294952305,6521,414,196,297,4294967041,16898,331,4294967071,4294967113,4294967015,11801,4294964218,11863,134,241,13
12403177,95,2287,4294952288,6629,449,187,327,4294967034,16935,208,4294966958,4294967130,4294967046,11851,4294964238,11834,123,229,17
12409177,4294967032,2274,4294952341,6583,505,203,349,4294967076,16880,184,4294966869,4294967105,4294967061,11783,4294964208,11926,112,243,6
12415177,4294967196,2274,4294952362,6498,537,204,331,4294967051,16864,150,4294966794,4294967112,4294967076,11781,4294964231,11901,142,225,18
12421177,149,2239,4294952369,6585,563,200,336,4294967054,16802,187,4294966763,4294967087,4294967081,11797,4294964221,11864,162,231,10
12427177,4294967174,2211,4294952425,6483,563,178,321,4294967074,16720,124,4294966738,4294967101,4294967100,11816,4294964268,11788,176,232,4
12433177,4294967102,2248,4294952380,6571,556,176,270,4294967080,16646,123,4294966794,4294967118,4294967101,11806,4294964266,11924,174,196,4294967291
12439177,100,2207,4294952378,6507,537,172,299,4294967071,16686,131,4294966854,4294967112,4294967085,11826,4294964283,11861,199,202,14
12445177,4294967221,2222,4294952371,6505,529,181,303,4294967093,16644,166,4294966956,4294967076,4294967060,11871,4294964261,11877,185,213,11
12451177,4294966954,2191,4294952372,6601,500,234,298,4294967099,16667,116,4294967043,4294967071,4294967085,11820,4294964243,11917,201,186,15
12457177,4294967273,2184,4294952361,6543,475,237,276,4294967070,16667,165,4294967167,4294967085,4294967092,11822,4294964307,11880,222,194,22
12463177,36,2208,4294952353,6588,495,216,264,4294967042,16696,203,4294967267,4294967114,4294967077,11840,4294964330,11881,214,182,21
12469177,4294966958,2267,4294952344,6601,483,210,262,4294967026,16754,173,68,4294967099,4294967074,11882,4294964269,11900,204,190,41
12475177,4294967110,2286,4294952358,6547,448,223,258,4294967011,16782,215,115,4294967097,4294967094,11881,4294964285,11903,204,201,39
12481177,83,2222,4294952363,6617,443,198,259,4294967020,16836,189,124,4294967096,4294967086,11840,4294964306,11906,216,213,15
12487177,4294967071,2277,4294952413,6577,444,198,267,4294967002,16894,241,130,4294967109,4294967090,11838,4294964272,11902,213,202,41
12493177,4294967041,2296,4294952394,6522,473,181,271,4294966999,16896,161,84,4294967117,4294967096,11870,4294964239,11901,196,220,31
12499177,132,2293,4294952460,6572,482,216,279,4294967057,16975,217,16,4294967132,4294967123,11867,4294964281,11880,197,206,36
12505177,4294967278,2292,4294952429,6517,512,219,262,4294967013,16881,244,4294967241,4294967139,4294967137,11823,4294964250,11975,170,203,24
12511177,4294967013,2227,4294952421,6569,555,223,269,4294967015,16872,203,4294967133,4294967161,4294967141,11851,4294964254,11882,176,223,43
12517177,4294967275,2242,4294952477,6489,562,219,302,4294966986,16786,214,4294967065,4294967149,4294967144,11894,4294964249,11842,172,228,24
12523177,20,2220,4294952454,6519,572,222,324,4294966957,16755,75,4294967004,4294967129,4294967176,11871,4294964231,11887,154,230,22
12529177,4294966986,2215,4294952447,6569,598,236,342,4294967042,16714,91,4294966980,4294967093,4294967163,11887,4294964245,11807,136,217,18
12535177,4294967144,2210,4294952420,6521,558,252,318,4294967031,16768,121,4294966992,4294967073,4294967163,11802,4294964211,11868,128,244,6
12541177,130,2199,4294952384,6549,507,233,319,4294967053,16785,264,4294966983,4294967083,4294967174,11861,4294964229,11856,118,230,22
12547177,4294967158,2202,4294952364,6565,480,236,314,4294967104,16735,169,4294967028,4294967141,4294967142,11855,4294964217,11936,127,225,13
12553177,4294967072,2208,4294952314,6510,463,251,304,4294967039,16698,172,4294967113,4294967138,4294967157,11809,4294964214,11926,120,229,4294967290
12559177,129,2185,4294952329,6574,414,268,303,4294967055,16705,211,4294967156,4294967165,4294967139,11873,4294964214,11914,136,216,7
12565177,4294967248,2209,4294952356,6583,398,296,289,4294967059,16654,220,4294967221,4294967154,4294967141,11896,4294964265,11862,125,225,4294967290
12571177,4294966990,2166,4294952327,6555,396,285,288,4294967066,16696,220,4294967246,4294967166,4294967147,11868,4294964232,11886,107,216,5
12577177,36,2218,4294952380,6573,396,294,298,4294967059,16733,126,4294967293,4294967152,4294967140,11807,4294964257,11885,123,217,6
12583177,115,2205,4294952405,6570,417,262,280,4294967068,16780,97,19,4294967158,4294967135,11843,4294964250,11822,145,223,2
12589177,4294967045,2209,4294952415,6559,412,248,283,4294966980,16880,158,28,4294967175,4294967123,11880,4294964246,11874,154,249,0
12595177,4294967204,2228,4294952413,6609,449,259,270,4294967039,16879,149,38,4294967175,4294967145,11901,4294964197,11852,141,243,4294967292
12601177,144,2253,4294952439,6600,480,246,288,4294967051,16885,195,11,4294967175,4294967146,11851,4294964255,11888,139,245,4294967268
12607177,4294967117,2244,4294952462,6625,527,245,321,4294967005,16840,98,4294967245,4294967138,4294967151,11844,4294964256,11915,150,237,10
12613177,4294967083,2257,4294952447,6579,563,247,345,4294966994,16846,108,4294967198,4294967133,4294967148,11863,4294964283,11841,152,216,4294967286
12619177,177,2196,4294952411,6554,601,260,348,4294967053,16748,170,4294967131,4294967151,4294967142,11877,4294964287,11839,145,234,4294967294
12625177,45,2178,4294952366,6510,603,261,360,4294967058,16687,206,4294967057,4294967199,4294967155,11846,4294964285,11857,155,227,1
12631177,4294966986,2143,4294952394,6520,613,279,378,4294967039,16685,140,4294967001,4294967199,4294967138,11849,4294964265,11816,157,235,3
12637177,4294967015,2196,4294952389,6535,625,258,357,4294967037,16659,236,4294966990,4294967199,4294967131,11876,4294964250,11879,144,215,0
12643177,4294966599,2237,4294952395,6541,609,241,352,4294967021,16690,163,4294967031,4294967145,4294967099,11846,4294964261,11888,141,228,3
12649177,4294965850,2265,4294952410,6591,579,222,353,4294967030,16705,212,4294967118,4294967136,4294967115,11846,4294964212,11948,162,217,2
12655177,4294966218,2316,4294952320,6649,545,210,333,4294967064,16777,126,4294967219,4294967128,4294967089,11879,4294964293,11866,142,213,29
12661177,116,2264,4294952375,6547,524,220,335,4294967050,16825,114,4294967294,4294967133,4294967064,11855,4294964272,11868,160,219,10
12667177,1026,2289,4294952380,6556,496,226,338,4294966991,16818,169,49,4294967152,4294967090,11832,4294964277,11799,141,217,10
12673177,1707,2232,4294952383,6596,485,248,328,4294966975,16809,182,52,4294967202,4294967097,11856,4294964244,11928,150,224,4294967295
12679177,1714,2175,4294952447,6664,490,259,316,4294966968,16817,187,56,4294967194,4294967112,11914,4294964300,11865,126,237,5
12685177,1078,2212,4294952378,6533,478,289,337,4294966978,16804,175,15,4294967152,4294967124,11833,4294964295,11862,147,246,10
12691177,4294967137,2142,4294952418,6519,477,250,323,4294966976,16858,255,4294967246,4294967114,4294967147,11819,4294964239,11918,137,274,21
12697177,4294966640,2154,4294952447,6538,450,264,343,4294966987,16885,139,4294967173,4294967117,4294967167,11892,4294964206,11790,153,237,22
12703177,4294966273,2165,4294952413,6530,459,259,339,4294967033,16845,134,4294967067,4294967133,4294967169,11828,4294964285,11921,165,233,8
12709177,4294965897,2169,4294952371,6521,438,258,323,4294967009,16798,121,4294966992,4294967186,4294967152,11879,4294964307,11905,160,256,7
12715177,4294966345,2190,4294952363,6551,444,249,343,4294966984,16798,119,4294966906,4294967158,4294967144,11830,4294964278,11928,154,248,22
12721177,4294966947,2251,4294952343,6652,463,249,354,4294967004,16707,219,4294966910,4294967136,4294967162,11866,4294964290,11854,158,243,25
12727177,4294966942,2237,4294952347,6548,462,259,335,4294967037,16654,204,4294966915,4294967150,4294967193,11879,4294964284,11905,150,226,36
12733177,4294967078,2230,4294952346,6625,475,239,343,4294967004,16614,172,4294966954,4294967118,4294967148,11876,4294964239,11854,130,219,19
12739177,238,2224,4294952318,6617,489,211,330,4294966994,16689,127,4294967043,4294967102,4294967144,11885,4294964274,11869,133,247,22
12745177,85,2194,4294952360,6554,515,228,314,4294966990,16710,106,4294967134,4294967114,4294967117,11821,4294964267,11822,136,216,36
12751177,4294967101,2199,4294952396,6537,530,240,323,4294967033,16732,94,4294967235,4294967119,4294967106,11860,4294964213,11828,117,249,10
12757177,98,2201,4294952361,6541,566,249,319,4294967067,16763,77,4294967290,4294967171,4294967113,11880,4294964227,11854,173,224,22
12763177,75,2196,4294952376,6536,603,239,317,4294966943,16797,93,71,4294967192,4294967118,11876,4294964201,11890,169,231,32
12769177,4294966994,2164,4294952402,6551,607,255,314,4294966926,16780,206,84,4294967185,4294967135,11832,4294964236,11955,150,221,27
12775177,4294967186,2160,4294952417,6537,584,250,348,4294966948,16741,231,52,4294967179,4294967132,11883,4294964234,11968,169,222,8
12781177,148,2225,4294952493,6500,611,244,324,4294966968,16738,249,4294967286,4294967170,4294967140,11832,4294964256,11900,173,209,11
12787177,4294967128,2213,4294952435,6529,588,237,350,4294966933,16749,199,4294967176,4294967165,4294967147,11896,4294964244,11833,183,231,12
12793177,4294967071,2208,4294952455,6545,581,250,361,4294967003,16726,204,4294967117,4294967165,4294967115,11841,4294964252,11976,157,242,4294967287
12799177,94,2194,4294952498,6508,579,249,398,4294966983,16758,216,4294967090,4294967170,4294967116,11872,4294964260,11886,152,224,19
12805177,4294967194,2225,4294952467,6483,581,275,395,4294966949,16743,204,4294967067,4294967172,4294967087,11849,4294964244,11879,164,215,1
12811177,4294966951,2218,4294952499,6489,581,310,411,4294967010,16745,214,4294967080,4294967164,4294967087,11834,4294964258,11896,169,238,4294967285
12817177,4294967253,2233,4294952499,6574,556,326,409,4294967007,16800,159,4294967113,4294967152,4294967076,11841,4294964246,11861,172,237,4294967287
12823177,55,2224,4294952472,6525,534,353,427,4294966968,16821,167,4294967180,4294967134,4294967049,11870,4294964228,11886,182,239,4294967293
12829177,4294966989,2186,4294952410,6570,457,352,438,4294966939,16859,149,4294967277,4294967123,4294967079,11863,4294964209,11937,190,230,6
12835177,4294967112,2137,4294952362,6540,391,361,438,4294966979,16843,248,10,4294967124,4294967109,11832,4294964236,11868,185,237,4294967289
12841177,88,2122,4294952338,6495,355,345,406,4294966988,16783,186,32,4294967159,4294967141,11846,4294964264,11892,162,242,4294967289
12847177,4294967095,2168,4294952293,6621,339,380,420,4294966934,16828,156,4294967292,4294967205,4294967132,11846,4294964288,11830,172,232,10
12853177,4294967080,2139,4294952388,6716,324,378,402,4294966945,16815,225,4294967253,4294967164,4294967163,11873,4294964215,11839,175,228,3
12859177,184,2178,4294952321,6774,332,363,357,4294966910,16911,255,4294967204,4294967148,4294967178,11874,4294964260,11914,169,218,37
12865177,53,2126,4294952252,6794,340,302,324,4294966967,16868,229,4294967182,4294967146,4294967177,11870,4294964261,11902,158,213,35
12871177,4294967086,2134,4294952192,6722,344,276,318,4294966923,16808,197,4294967110,4294967171,4294967187,11805,4294964212,11838,166,230,0
12877177,144,2141,4294952311,6696,360,264,319,4294966965,16788,125,4294967088,4294967159,4294967185,11858,4294964251,11892,166,227,14
12883177,182,2100,4294952292,6707,424,224,321,4294966975,16733,154,4294967038,4294967148,4294967175,11853,4294964276,11795,175,221,34
12889177,4294967094,2106,4294952392,6663,488,220,307,4294966994,16743,156,4294967036,4294967137,4294967180,11859,4294964241,11920,176,226,1
12895177,4294967268,2133,4294952437,6683,562,202,291,4294967034,16733,187,4294967031,4294967155,4294967192,11870,4294964241,11908,166,237,18
12901177,222,2096,4294952445,6634,657,196,267,4294967043,16733,216,4294967057,4294967163,4294967189,11813,4294964279,11873,170,218,49
12907177,4294967192,2125,4294952477,6601,682,205,266,4294967007,16718,136,4294967096,4294967193,4294967170,11855,4294964267,11911,192,242,26
12913177,4294967153,2131,4294952467,6603,719,205,278,4294966963,16751,158,4294967127,4294967131,4294967137,11880,4294964280,11849,193,245,15
12919177,215,2167,4294952423,6525,747,176,313,4294966951,16775,191,4294967191,4294967117,4294967157,11861,4294964276,11883,188,247,26
12925177,63,2207,4294952434,6533,751,173,313,4294966999,16731,243,4294967242,4294967119,4294967173,11800,4294964269,11880,178,239,24
12931177,4294967087,2226,4294952419,6484,710,179,308,4294967009,16785,183,4,4294967152,4294967201,11803,4294964263,11877,183,247,32
12937177,106,2229,4294952422,6483,638,171,315,4294966987,16769,246,17,4294967134,4294967196,11846,4294964261,11860,192,235,20
12943177,97,2279,4294952359,6478,568,166,316,4294966983,16850,121,4294967276,4294967101,4294967163,11848,4294964259,11825,171,231,11
12949177,4294966981,2225,4294952361,6529,538,218,322,4294967000,16843,154,4294967261,4294967100,4294967143,11825,4294964253,11926,158,238,34
12955177,4294967110,2185,4294952361,6426,477,250,323,4294966976,16797,110,4294967219,4294967099,4294967138,11843,4294964288,11836,148,219,9
12961177,44,2161,4294952386,6522,414,276,316,4294967042,16804,207,4294967185,4294967155,4294967174,11829,4294964227,11862,171,200,12
12967177,4294967029,2094,4294952390,6671,403,301,312,4294966950,16784,156,4294967107,4294967157,4294967196,11852,4294964265,11880,159,188,4294967275
12973177,4294966956,2134,4294952388,6728,356,312,281,4294966963,16730,99,4294967042,4294967149,4294967185,11835,4294964228,11931,125,193,4294967295
12979177,20,2085,4294952413,6694,319,304,263,4294966978,16707,107,4294967004,4294967121,4294967161,11852,4294964263,11916,152,193,4294967284
12985177,4294967146,2134,4294952380,6656,303,264,274,4294967017,16762,132,4294966995,4294967131,4294967158,11897,4294964218,11878,137,195,4294967289
12991177,4294966892,2118,4294952363,6608,319,243,279,4294966997,16723,188,4294967026,4294967122,4294967139,11867,4294964251,11889,135,198,4294967294
12997177,4294967259,2120,4294952366,6567,373,242,257,4294966951,16785,222,4294967078,4294967113,4294967153,11831,4294964246,11956,139,188,4294967277
13003177,26,2162,4294952385,6649,422,241,278,4294966981,16765,160,4294967145,4294967146,4294967140,11918,4294964226,11893,141,177,4294967287
13009177,4294966990,2157,4294952437,6681,482,250,268,4294966948,16751,195,4294967199,4294967154,4294967114,11881,4294964199,11887,149,191,4294967282
13015177,4294967221,2143,4294952434,6664,542,178,289,4294966930,16785,106,4294967223,4294967156,4294967138,11850,4294964300,11852,143,190,4294967268
13021177,186,2222,4294952486,6587,591,172,304,4294966956,16786,152,4294967229,4294967158,4294967148,11930,4294964283,11800,160,204,4294967272
13027177,4294967152,2149,4294952417,6619,615,155,312,4294966965,16754,168,4294967208,4294967142,4294967161,11880,4294964229,11831,151,202,4294967282
13033177,4294967098,2144,4294952386,6552,619,138,329,4294966927,16799,145,4294967218,4294967146,4294967163,11828,4294964306,11869,137,194,4294967274
13039177,151,2127,4294952398,6545,635,136,330,4294966933,16817,211,4294967184,4294967177,4294967142,11908,4294964262,11950,142,222,4
13045177,4294967230,2119,4294952381,6575,652,174,329,4294966989,16733,177,4294967156,4294967161,4294967141,11856,4294964261,11905,155,221,4294967288
13051177,4294966952,2133,4294952349,6528,668,210,346,4294966910,16745,157,4294967107,4294967168,4294967137,11821,4294964289,11845,129,221,4294967274
13057177,4294967262,2137,4294952421,6516,647,205,358,4294966991,16722,279,4294967081,4294967172,4294967125,11887,4294964236,11807,140,240,4294967284
13063177,4294967281,2175,4294952383,6571,610,199,345,4294966903,16745,232,4294967075,4294967153,4294967096,11885,4294964298,11936,128,227,4294967294
13069177,4294966969,2161,4294952385,6536,580,186,315,4294966961,16769,243,4294967077,4294967143,4294967100,11828,4294964265,11816,155,243,4294967282
13075177,4294967155,2203,4294952386,6598,517,171,336,4294966999,16697,179,4294967085,4294967144,4294967085,11849,4294964295,11854,133,213,4294967276
13081177,116,2199,4294952372,6555,483,204,325,4294967021,16764,319,4294967116,4294967124,4294967064,11877,4294964296,11810,135,200,3
13087177,4294967072,2119,4294952365,6580,468,234,336,4294966993,16769,228,4294967166,4294967119,4294967070,11894,4294964264,11849,96,224,7
13093177,4294967037,2162,4294952353,6599,464,249,332,4294967011,16833,175,4294967222,4294967158,4294967093,11849,4294964224,11854,115,240,1
13099177,119,2125,4294952369,6486,471,276,311,4294966968,16796,172,4294967231,4294967150,4294967111,11828,4294964231,11885,115,236,4294967290
13105177,4294967259,2175,4294952374,6626,484,261,305,4294966955,16791,162,4294967243,4294967140,4294967102,11835,4294964245,11861,130,242,4294967287
13111177,4294966996,2155,4294952441,6582,486,242,301,4294966981,16797,228,4294967223,4294967122,4294967120,11827,4294964250,11884,119,244,13
13117177,26,2116,4294952420,6633,483,229,300,4294966916,16772,263,4294967223,4294967119,4294967109,11869,4294964247,11875,131,254,16
13123177,95,2173,4294952416,6648,505,218,312,4294966948,16820,184,4294967214,4294967131,4294967122,11833,4294964249,11916,115,270,3
13129177,4294967053,2182,4294952404,6606,513,206,307,4294966926,16775,163,4294967184,4294967134,4294967121,11876,4294964281,11876,128,268,6
13135177,4294967230,2167,4294952410,6689,482,193,315,4294966907,16805,140,4294967158,4294967120,4294967120,11821,4294964296,11888,160,249,4294967292
13141177,183,2113,4294952411,6648,500,204,311,4294966880,16770,174,4294967116,4294967131,4294967107,11816,4294964228,11862,153,249,18
13147177,4294967171,2079,4294952408,6599,520,201,299,4294966904,16750,118,4294967077,4294967146,4294967114,11854,4294964225,11887,171,246,19
13153177,4294967102,2100,4294952374,6617,533,214,280,4294966899,16769,166,4294967066,4294967152,4294967085,11848,4294964268,11837,165,254,29
13159177,167,2106,4294952344,6571,530,230,295,4294966922,16824,119,4294967076,4294967145,4294967074,11773,4294964241,11883,167,250,18
13165177,4294967245,2062,4294952323,6583,565,271,281,4294966952,16814,221,4294967104,4294967145,4294967087,11845,4294964191,11854,168,241,2
13171177,4294966931,2060,4294952335,6579,560,280,280,4294966958,16795,91,4294967117,4294967155,4294967094,11832,4294964274,11871,166,227,17
13177177,4294967277,1997,4294952367,6579,534,257,285,4294966908,16776,204,4294967148,4294967164,4294967128,11880,4294964255,11905,165,228,12
13183177,21,2053,4294952400,6631,487,244,249,4294966932,16711,164,4294967180,4294967186,4294967145,11864,4294964298,11884,187,230,25
13189177,4294966951,2151,4294952401,6653,470,242,233,4294966909,16721,234,4294967217,4294967178,4294967141,11838,4294964256,11807,201,218,24
13195177,4294967183,2125,4294952422,6616,438,215,223,4294966898,16717,235,4294967253,4294967182,4294967163,11841,4294964259,11863,197,208,14
13201177,135,2211,4294952389,6613,433,206,229,4294966892,16759,240,4294967254,4294967134,4294967147,11901,4294964274,11896,215,229,42
13207177,4294967125,2178,4294952432,6625,444,201,242,4294966878,16761,238,4294967240,4294967131,4294967159,11843,4294964299,11932,204,223,27
13213177,4294967089,2187,4294952445,6617,491,247,262,4294966951,16803,257,4294967270,4294967135,4294967183,11897,4294964244,11866,214,206,27
13219177,172,2135,4294952453,6539,530,279,290,4294966919,16837,203,4294967267,4294967152,4294967177,11837,4294964234,11909,182,229,22
13225177,4294967257,2130,4294952446,6584,555,289,314,4294966903,16813,143,4294967239,4294967157,4294967165,11847,4294964274,11823,198,217,18
13231177,4294967005,2112,4294952431,6588,567,303,290,4294966916,16801,152,4294967214,4294967161,4294967182,11848,4294964266,11885,184,232,25
13237177,28,2034,4294952415,6603,534,304,292,4294966960,16763,165,4294967167,4294967159,4294967174,11871,4294964270,11850,193,235,6
13243177,30,2081,4294952407,6552,461,271,288,4294966951,16700,171,4294967152,4294967144,4294967192,11849,4294964242,11912,177,228,20
13249177,4294966951,2111,4294952344,6609,428,257,279,4294967020,16749,199,4294967127,4294967145,4294967164,11828,4294964249,11897,137,238,10
13255177,4294967172,2155,4294952381,6693,358,239,273,4294966924,16774,257,4294967131,4294967145,4294967154,11845,4294964240,11835,139,220,11
13261177,86,2217,4294952371,6614,351,234,250,4294966946,16775,168,4294967146,4294967146,4294967152,11831,4294964202,11809,124,245,3
13267177,4294967108,2207,4294952390,6629,374,267,263,4294966865,16760,268,4294967161,4294967171,4294967148,11878,4294964226,11766,132,246,4294967293
13273177,4294967084,2156,4294952416,6733,424,277,282,4294966900,16771,173,4294967207,4294967176,4294967169,11848,4294964275,11845,116,241,24
13279177,142,2128,4294952392,6557,453,286,295,4294966850,16776,204,4294967262,4294967147,4294967170,11866,4294964257,11811,117,228,4
13285177,4294967273,2087,4294952437,6539,506,293,313,4294966905,16809,133,4294967272,4294967124,4294967190,11874,4294964216,11858,123,249,1
13291177,4294967088,2107,4294952524,6525,543,292,330,4294966947,16818,164,4294967286,4294967127,4294967190,11857,4294964241,11859,140,262,6
13297177,138,2106,4294952465,6597,537,275,331,4294966938,16799,137,4294967286,4294967169,4294967189,11883,4294964261,11872,136,242,20
13303177,141,2025,4294952433,6621,546,259,306,4294966960,16817,154,4294967263,4294967189,4294967208,11838,4294964281,11902,136,260,8
13309177,4294967049,2087,4294952470,6611,543,219,294,4294966909,16807,135,4294967221,4294967174,4294967209,11848,4294964216,11869,140,254,7
13315177,4294967223,2064,4294952428,6642,548,239,327,4294966950,16774,138,4294967173,4294967156,4294967196,11888,4294964254,11825,150,261,4294967292
13321177,128,2120,4294952413,6594,561,245,314,4294966944,16796,184,4294967145,4294967160,4294967203,11828,4294964249,11771,146,254,4294967294
13327177,4294967062,2138,4294952420,6721,528,268,333,4294966931,16734,205,4294967110,4294967187,4294967177,11862,4294964214,11819,143,242,0
13333177,4294967021,2133,4294952364,6621,508,246,332,4294966979,16734,174,4294967079,4294967161,4294967187,11891,4294964270,11841,136,223,4
13339177,89,2185,4294952370,6634,498,250,313,4294966947,16719,154,4294967071,4294967144,4294967189,11854,4294964238,11833,133,233,7
13345177,4294967238,2151,4294952334,6679,485,232,317,4294966955,16685,155,4294967134,4294967165,4294967176,11820,4294964265,11827,140,226,4294967278
13351177,4294966998,2162,4294952374,6686,467,244,307,4294966939,16693,67,4294967162,4294967171,4294967175,11870,4294964246,11885,146,232,2
13357177,4294967151,2204,4294952376,6645,466,257,288,4294966870,16725,150,4294967229,4294967158,4294967143,11861,4294964265,11854,146,223,8
13363177,4294966785,2206,4294952383,6678,454,253,290,4294966940,16778,122,4294967256,4294967155,4294967147,11839,4294964270,11927,161,213,4294967286
13369177,4294965940,2179,4294952400,6711,446,261,269,4294966867,16814,153,4294967288,4294967162,4294967142,11882,4294964236,11848,150,219,6
13375177,4294966085,2091,4294952380,6621,432,257,268,4294966898,16836,244,27,4294967167,4294967160,11894,4294964236,11841,164,219,14
13381177,4294967086,2090,4294952416,6582,442,235,291,4294966932,16823,257,23,4294967175,4294967157,11819,4294964208,11915,167,219,4294967284
13387177,712,2111,4294952408,6620,451,246,304,4294966891,16825,200,20,4294967187,4294967166,11856,4294964220,11783,160,203,31
13393177,1668,2047,4294952411,6607,457,246,297,4294966906,16832,241,4294967233,4294967164,4294967186,11898,4294964215,11783,170,220,4294967290
13399177,1720,2037,4294952364,6651,502,222,297,4294966937,16804,225,4294967186,4294967146,4294967189,11827,4294964294,11908,178,239,18
13405177,1387,2083,4294952401,6631,513,222,276,4294966944,16775,96,4294967128,4294967116,4294967183,11869,4294964304,11911,185,231,33
13411177,152,2103,4294952380,6619,527,206,287,4294966889,16791,181,4294967098,4294967106,4294967210,11865,4294964256,11854,168,246,5
13417177,4294966809,2108,4294952423,6654,549,176,290,4294966923,16693,245,4294967023,4294967103,4294967201,11906,4294964332,11898,184,222,15
13423177,4294966292,2168,4294952454,6693,541,200,285,4294966944,16718,201,4294967013,4294967125,4294967183,11860,4294964276,11824,169,223,0
13429177,4294965809,2151,4294952424,6580,556,181,276,4294966985,16697,253,4294966999,4294967136,4294967124,11890,4294964260,11920,148,245,10
13435177,4294966210,2168,4294952404,6666,541,163,278,4294966973,16697,156,4294967015,4294967116,4294967121,11849,4294964281,11836,141,236,4294967285
13441177,4294966784,2174,4294952402,6616,549,172,302,4294966956,16738,200,4294967084,4294967120,4294967160,11883,4294964268,11847,122,243,12
13447177,4294966787,2217,4294952411,6612,528,188,277,4294966986,16734,153,4294967172,4294967127,4294967159,11890,4294964245,11845,145,217,11
13453177,4294967017,2154,4294952470,6638,535,202,273,4294966907,16700,130,4294967253,4294967175,4294967164,11779,4294964206,11883,135,250,24
13459177,210,2067,4294952468,6638,519,215,276,4294966881,16759,127,15,4294967150,4294967173,11871,4294964241,11862,129,228,10
13465177,88,2075,4294952387,6572,502,234,277,4294966870,16777,170,50,4294967131,4294967157,11851,4294964244,11873,136,210,4
13471177,4294967175,2043,4294952398,6495,469,251,241,4294966892,16810,42,82,4294967145,4294967170,11834,4294964270,11880,161,185,5
13477177,167,2051,4294952365,6610,407,227,259,4294966869,16852,120,78,4294967118,4294967146,11863,4294964275,11892,153,194,28
13483177,162,2026,4294952390,6680,377,224,270,4294966902,16828,197,52,4294967139,4294967157,11827,4294964252,11897,167,196,3
13489177,4294967052,2066,4294952405,6664,329,209,272,4294966909,16798,101,4294967290,4294967171,4294967167,11793,4294964261,11907,173,224,6
13495177,4294967188,2101,4294952384,6588,309,246,245,4294966833,16781,117,4294967215,4294967161,4294967165,11784,4294964233,11871,182,222,9
13501177,125,2051,4294952410,6611,331,260,252,4294966901,16772,160,4294967142,4294967134,4294967168,11858,4294964259,11880,193,221,4294967289
13507177,4294967093,2056,4294952389,6554,354,264,268,4294966879,16772,250,4294967104,4294967159,4294967142,11851,4294964238,11857,190,219,4294967294
13513177,4294967055,2117,4294952438,6503,401,289,280,4294966978,16752,211,4294967069,4294967169,4294967141,11832,4294964255,11831,195,207,19
13519177,101,2044,4294952426,6508,441,304,284,4294966937,16693,248,4294967067,4294967221,4294967129,11885,4294964238,11892,202,221,4294967280
13525177,4294967192,2096,4294952376,6579,486,301,323,4294966898,16751,203,4294967077,4294967197,4294967127,11830,4294964237,11835,193,219,4294967268
13531177,4294966948,2094,4294952454,6527,496,290,331,4294966901,16800,197,4294967161,4294967147,4294967108,11898,4294964253,11779,204,195,4294967294
13537177,27,2062,4294952480,6484,512,285,330,4294966850,16748,179,4294967244,4294967119,4294967135,11808,4294964267,11886,197,231,4294967292
13543177,59,2154,4294952466,6485,527,279,351,4294966946,16766,187,12,4294967153,4294967142,11876,4294964259,11853,185,229,0
13549177,4294967026,2114,4294952438,6486,536,283,333,4294966923,16887,211,65,4294967155,4294967174,11894,4294964288,11845,177,212,6
13555177,4294967233,2145,4294952406,6626,537,299,331,4294966872,16885,207,76,4294967180,4294967164,11931,4294964297,11935,167,216,1
13561177,143,2089,4294952400,6593,536,322,345,4294966847,16853,145,84,4294967184,4294967212,11904,4294964286,11852,169,204,6
13567177,4294967098,2082,4294952356,6700,519,335,358,4294966851,16793,136,56,4294967176,4294967220,11910,4294964262,11835,155,220,4294967286
13573177,4294967046,2076,4294952251,6717,503,307,319,4294966815,16775,199,26,4294967208,4294967226,11889,4294964256,11839,159,217,4294967283
13579177,93,2158,4294952327,6721,457,294,315,4294966872,16845,125,4294967236,4294967144,4294967254,11861,4294964239,11893,148,250,23
13585177,4294967190,2125,4294952353,6747,399,243,284,4294966853,16851,203,4294967157,4294967131,4294967252,11917,4294964271,11853,164,236,10
13591177,4294966938,2182,4294952351,6690,356,213,254,4294966902,16846,116,4294967092,4294967102,4294967245,11919,4294964310,11863,168,232,14
13597177,52,2140,4294952328,6721,351,192,231,4294966935,16830,191,4294967057,4294967131,4294967246,11840,4294964276,11886,141,230,17
13603177,162,2141,4294952385,6679,367,192,230,4294966984,16780,242,4294967046,4294967145,4294967263,11851,4294964231,11859,164,222,38
13609177,4294967125,2123,4294952373,6722,377,225,232,4294966929,16752,238,4294967015,4294967124,4294967275,11896,4294964273,11755,149,228,14
13615177,13,2120,4294952429,6645,415,221,207,4294966933,16614,283,4294967038,4294967127,4294967278,11899,4294964321,11813,141,236,36
13621177,253,2070,4294952414,6599,470,242,236,4294966944,16638,257,4294967088,4294967121,4294967279,11877,4294964277,11867,152,220,52
13627177,4294967250,2002,4294952415,6690,476,229,235,4294966922,16623,269,4294967174,4294967116,4294967267,11867,4294964262,11772,141,238,43
13633177,4294967243,2027,4294952386,6627,532,208,237,4294966921,16674,232,4294967240,4294967118,4294967237,11852,4294964309,11872,132,240,39
13639177,235,2096,4294952390,6501,527,152,243,4294966903,16730,218,22,4294967118,4294967212,11888,4294964217,11809,144,246,32
13645177,0,2130,4294952459,6569,494,125,257,4294966894,16820,131,100,4294967117,4294967236,11842,4294964283,11846,136,243,24
13651177,4294967071,2189,4294952352,6628,506,124,253,4294966910,16814,111,140,4294967145,4294967218,11819,4294964258,11850,135,229,40
13657177,120,2202,4294952376,6575,506,147,232,4294966863,16831,145,146,4294967164,4294967217,11860,4294964234,11920,135,264,29
13663177,77,2184,4294952382,6595,513,140,244,4294966873,16828,165,94,4294967143,4294967239,11839,4294964248,11857,133,244,28
13669177,4294967050,2189,4294952397,6560,526,196,261,4294966865,16766,146,22,4294967146,4294967229,11746,4294964239,11805,126,232,3
13675177,4294967211,2182,4294952449,6514,540,218,282,4294966881,16785,80,4294967256,4294967142,4294967198,11816,4294964160,11865,145,229,4294967277
13681177,128,2140,4294952435,6538,564,219,282,4294966891,16824,125,4294967169,4294967116,4294967198,11843,4294964203,11851,130,228,4294967284
13687177,4294967026,2086,4294952486,6557,548,225,345,4294966907,16840,135,4294967091,4294967106,4294967197,11866,4294964212,11894,117,215,4294967273
13693177,4294966946,2110,4294952492,6600,549,211,319,4294966908,16765,117,4294967022,4294967117,4294967214,11883,4294964185,11823,138,217,4294967291
13699177,13,2026,4294952494,6596,545,211,299,4294966873,16746,191,4294966989,4294967154,4294967227,11871,4294964195,11973,126,200,4294967262
13705177,4294967194,2037,4294952456,6551,524,208,307,4294966905,16692,212,4294967014,4294967154,4294967222,11901,4294964144,11835,141,229,4294967256
13711177,4294966978,2018,4294952457,6656,500,226,296,4294966906,16653,133,4294967026,4294967140,4294967224,11872,4294964206,11916,150,214,4294967262
13717177,4294967281,2040,4294952442,6700,490,243,319,4294966894,16611,229,4294967106,4294967137,4294967213,11952,4294964219,11918,168,207,4294967262
13723177,4294967282,2066,4294952418,6651,474,245,319,4294966945,16655,193,4294967212,4294967130,4294967212,11907,4294964219,11951,155,231,4294967266
13729177,4294966873,2092,4294952436,6634,466,235,321,4294966907,16703,169,4294967285,4294967149,4294967183,11927,4294964245,11876,174,231,4294967247
13735177,4294967054,2098,4294952381,6647,476,222,342,4294966928,16721,213,76,4294967179,4294967176,11958,4294964280,11806,184,224,4294967255
13741177,46,2101,4294952517,6624,467,228,308,4294966869,16784,202,127,4294967183,4294967139,11896,4294964310,11874,166,236,4294967261
13747177,4294967004,2137,4294952480,6599,473,215,309,4294966854,16791,164,127,4294967194,4294967149,11877,4294964274,11889,180,235,4294967255
13753177,4294967019,2086,4294952459,6625,477,235,334,4294966838,16760,170,95,4294967190,4294967165,11874,4294964263,11910,170,250,4294967254
13759177,113,2022,4294952424,6600,477,250,322,4294966833,16756,151,43,4294967215,4294967153,11894,4294964293,11772,158,246,4294967268
13765177,4294967209,2037,4294952427,6511,453,265,302,4294966835,16807,134,4294967288,4294967183,4294967150,11907,4294964310,11825,168,255,4294967269
13771177,4294966939,2040,4294952366,6564,419,287,303,4294966930,16852,132,4294967204,4294967175,4294967123,11872,4294964274,11871,156,262,4294967261
13777177,11,2005,4294952367,6626,395,270,284,4294966895,16850,194,4294967111,4294967179,4294967106,11872,4294964305,11829,135,260,4294967268
13783177,45,2067,4294952327,6689,378,287,294,4294966886,16849,194,4294967028,4294967158,4294967123,11896,4294964225,11792,126,267,4294967272
13789177,4294967008,2037,4294952325,6656,360,281,277,4294966852,16820,191,4294967016,4294967169,4294967169,11824,4294964271,11814,163,233,4294967278
13795177,4294967210,2092,4294952293,6592,359,275,249,4294966888,16779,256,4294966981,4294967180,4294967145,11826,4294964252,11775,155,269,4294967291
13801177,110,2170,4294952339,6580,377,264,259,4294966878,16796,229,4294966969,4294967161,4294967133,11874,4294964290,11846,128,260,4294967276
13807177,4294967067,2129,4294952365,6638,406,259,253,4294966894,16749,243,4294966978,4294967133,4294967128,11853,4294964301,11840,132,266,4294967279
13813177,4294967095,2199,4294952362,6637,453,254,245,4294966868,16764,272,4294967043,4294967141,4294967142,11834,4294964279,11760,135,258,4294967281
13819177,187,2198,4294952380,6684,494,259,242,4294966891,16767,225,4294967112,4294967155,4294967160,11845,4294964274,11843,136,257,3
13825177,4294967275,2194,4294952413,6672,540,256,252,4294966909,16716,103,4294967142,4294967149,4294967183,11833,4294964275,11869,157,257,0
13831177,4294967020,2089,4294952437,6500,588,251,257,4294966882,16803,196,4294967187,4294967151,4294967185,11790,4294964285,11871,146,256,4294967285
13837177,37,2088,4294952406,6549,581,240,293,4294966908,16773,145,4294967221,4294967157,4294967191,11824,4294964329,11913,148,233,13
13843177,35,2070,4294952454,6617,609,239,280,4294966903,16762,101,4294967210,4294967160,4294967186,11851,4294964283,11856,150,245,5
13849177,4294966950,2018,4294952441,6532,607,253,296,4294966927,16729,163,4294967207,4294967166,4294967180,11833,4294964295,11850,146,245,23
13855177,4294967161,2070,4294952409,6657,581,240,288,4294966898,16729,167,4294967183,4294967169,4294967190,11881,4294964284,11862,169,228,10
13861177,112,2049,4294952406,6643,517,251,276,4294966881,16772,104,4294967182,4294967147,4294967193,11877,4294964297,11832,161,265,17
13867177,4294967108,2086,4294952288,6640,452,269,239,4294966885,16801,54,4294967158,4294967117,4294967181,11897,4294964309,11866,182,213,15
13873177,4294967048,2068,4294952317,6651,393,245,258,4294966904,16763,122,4294967139,4294967106,4294967174,11869,4294964250,11855,170,223,30
13879177,136,2133,4294952354,6661,371,241,241,4294966947,16710,43,4294967137,4294967126,4294967199,11910,4294964302,11896,187,201,13
13885177,4294967213,2131,4294952381,6679,363,247,230,4294966935,16753,4294967294,4294967125,4294967143,4294967179,11931,4294964318,11838,179,217,22
13891177,4294967016,2114,4294952430,6702,351,277,223,4294966847,16756,44,4294967159,4294967174,4294967173,11867,4294964263,11890,152,235,16
13897177,54,2105,4294952415,6611,378,278,222,4294966861,16783,97,4294967163,4294967151,4294967179,11879,4294964291,11816,160,227,22
13903177,49,2056,4294952450,6583,399,297,208,4294966891,16764,170,4294967210,4294967152,4294967182,11899,4294964279,11867,132,231,51
13909177,4294967004,2039,4294952437,6594,404,301,222,4294966869,16800,159,4294967237,4294967157,4294967189,11825,4294964277,11869,113,253,15
13915177,4294967192,2032,4294952429,6517,416,312,219,4294966885,16814,101,4294967252,4294967166,4294967183,11883,4294964271,11794,126,246,51
13921177,124,2058,4294952451,6562,416,310,236,4294966914,16802,159,4294967244,4294967180,4294967208,11873,4294964223,11890,127,218,24
13927177,4294967106,2043,4294952446,6619,424,289,254,4294966878,16839,112,4294967223,4294967164,4294967208,11892,4294964241,11871,117,243,42
13933177,4294967098,2124,4294952437,6678,415,301,258,4294966871,16800,149,4294967201,4294967128,4294967188,11894,4294964203,11888,121,240,16
13939177,121,2080,4294952330,6667,409,275,242,4294966870,16824,144,4294967159,4294967156,4294967221,11849,4294964252,11886,125,246,17
13945177,4294967211,2160,4294952379,6612,459,257,283,4294966868,16732,225,4294967138,4294967165,4294967209,11884,4294964247,11761,111,234,54
13951177,4294967007,2167,4294952404,6699,488,253,300,4294966845,16726,95,4294967097,4294967172,4294967202,11888,4294964273,11884,123,246,28
13957177,80,2188,4294952445,6609,528,258,297,4294966883,16759,202,4294967058,4294967155,4294967200,11895,4294964251,11898,102,246,16
13963177,88,2155,4294952440,6617,544,262,321,4294966892,16702,212,4294967055,4294967154,4294967191,11902,4294964254,11945,98,239,28
13969177,4294966996,2140,4294952455,6654,541,236,316,4294966878,16714,202,4294967073,4294967166,4294967178,11893,4294964259,11882,109,259,13
13975177,4294967200,2169,4294952451,6590,516,261,323,4294966884,16719,97,4294967126,4294967149,4294967166,11842,4294964250,11819,108,260,14
13981177,109,2140,4294952454,6642,478,245,303,4294966889,16718,170,4294967155,4294967141,4294967142,11893,4294964250,11861,114,256,13
13987177,4294967084,2116,4294952421,6618,447,233,315,4294966908,16750,188,4294967230,4294967133,4294967156,11858,4294964243,11911,113,274,19
13993177,4294967048,2050,4294952440,6560,430,247,323,4294966870,16811,207,4294967281,4294967157,4294967171,11845,4294964244,11843,106,273,14
13999177,110,2087,4294952367,6583,413,253,332,4294966861,16824,252,32,4294967170,4294967172,11849,4294964284,11888,107,278,4294967278
14005177,4294967263,2054,4294952450,6640,422,290,357,4294966909,16830,211,32,4294967159,4294967201,11837,4294964248,11819,109,269,4294967293
14011177,4294966976,2005,4294952349,6784,439,310,356,4294966873,16853,95,9,4294967151,4294967211,11850,4294964272,11799,127,245,3
14017177,6,1918,4294952377,6693,375,314,341,4294966889,16853,193,4294967249,4294967130,4294967226,11815,4294964215,11918,126,252,0
14023177,79,1934,4294952374,6513,358,289,337,4294966955,16830,146,4294967202,4294967144,4294967221,11840,4294964208,11838,124,256,9
14029177,4294967040,2008,4294952384,6610,343,268,353,4294966925,16801,145,4294967126,4294967149,4294967245,11843,4294964245,11860,133,251,4294967284
14035177,4294967246,2004,4294952336,6572,325,273,348,4294966909,16725,72,4294967065,4294967132,4294967199,11831,4294964234,11905,122,259,4294967275
14041177,147,2022,4294952319,6636,342,241,334,4294966890,16766,152,4294967049,4294967110,4294967192,11838,4294964213,11923,117,250,4294967263
14047177,4294967059,2116,4294952307,6727,360,204,310,4294966894,16702,81,4294967009,4294967109,4294967207,11833,4294964252,11886,129,254,4294967270
14053177,4294967060,2162,4294952354,6739,395,214,305,4294966920,16641,124,4294967054,4294967103,4294967208,11862,4294964255,11876,137,262,4294967294
14059177,112,2101,4294952349,6640,427,211,305,4294966889,16674,173,4294967123,4294967134,4294967186,11798,4294964259,11883,140,245,4294967293
14065177,4294967183,2080,4294952379,6698,465,202,310,4294966880,16713,149,4294967174,4294967130,4294967155,11789,4294964255,11952,148,274,4294967271
14071177,4294966973,2102,4294952424,6667,546,187,317,4294966847,16782,153,4294967280,4294967123,4294967174,11815,4294964248,11896,153,264,4294967284
14077177,39,2092,4294952430,6676,624,176,331,4294966901,16771,203,55,4294967133,4294967201,11818,4294964267,11871,153,303,4294967257
14083177,52,2090,4294952474,6665,674,183,318,4294966907,16790,303,83,4294967132,4294967190,11848,4294964218,11849,153,269,4294967269
14089177,4294966863,2094,4294952447,6626,714,177,308,4294966888,16894,177,104,4294967118,4294967177,11824,4294964226,11848,165,262,4294967281
14095177,4294966726,2106,4294952381,6663,726,167,290,4294966898,16885,228,71,4294967153,4294967198,11828,4294964253,11783,169,280,4294967269
14101177,4294966541,2136,4294952408,6572,711,152,307,4294966892,16865,191,32,4294967147,4294967206,11857,4294964252,11805,163,275,4294967278
14107177,4294966025,2143,4294952444,6613,675,142,332,4294966871,16839,78,4294967258,4294967152,4294967234,11861,4294964291,11798,167,257,4294967261
14113177,4294966573,2142,4294952404,6686,617,167,327,4294966819,16769,107,4294967170,4294967149,4294967224,11888,4294964277,11832,160,267,4294967275
14119177,769,2116,4294952397,6604,583,176,314,4294966855,16797,143,4294967112,4294967115,4294967206,11901,4294964292,11765,149,273,4294967289
14125177,1672,2080,4294952398,6571,520,182,318,4294966885,16802,112,4294967046,4294967097,4294967169,11895,4294964301,11781,144,266,4294967291
14131177,1711,2049,4294952430,6546,493,195,316,4294966849,16807,147,4294967050,4294967134,4294967210,11887,4294964344,11902,159,258,1
14137177,1573,1944,4294952423,6667,460,217,307,4294966881,16735,163,4294967053,4294967145,4294967180,11903,4294964299,11860,160,244,4
14143177,583,2017,4294952392,6533,416,245,321,4294966834,16735,173,4294967098,4294967172,4294967182,11935,4294964258,11863,155,254,5
14149177,4294966572,1959,4294952372,6633,360,245,316,4294966804,16714,155,4294967118,4294967160,4294967155,11895,4294964272,11874,147,273,4294967287
14155177,4294966176,1953,4294952340,6677,325,254,286,4294966892,16729,199,4294967156,4294967116,4294967179,11857,4294964308,11863,141,265,26
14161177,4294966230,2060,4294952375,6660,255,248,266,4294966911,16685,147,4294967229,4294967111,4294967199,11938,4294964317,11833,152,252,11
14167177,4294966048,2101,4294952377,6645,245,219,248,4294966905,16714,157,4294967268,4294967147,4294967201,11872,4294964272,11882,149,276,4294967294
14173177,4294966394,2068,4294952394,6601,266,243,241,4294966868,16731,237,4294967286,4294967166,4294967215,11837,4294964266,11766,176,272,16
14179177,4294967135,2041,4294952376,6594,304,225,277,4294966822,16748,265,5,4294967183,4294967194,11875,4294964220,11891,165,258,23
14185177,4294967199,2045,4294952388,6649,409,250,270,4294966850,16746,215,2,4294967159,4294967183,11862,4294964288,11841,152,253,10
14191177,4294967133,2042,4294952408,6636,492,272,302,4294966841,16793,174,23,4294967158,4294967183,11854,4294964243,11889,122,256,4
14197177,244,2041,4294952435,6573,563,288,289,4294966857,16880,84,18,4294967178,4294967185,11867,4294964274,11851,145,272,10
14203177,265,2008,4294952394,6617,611,268,304,4294966833,16800,99,4294967257,4294967159,4294967172,11842,4294964258,11806,145,266,1
14209177,4294967153,1978,4294952383,6597,635,256,323,4294966874,16853,164,4294967189,4294967146,4294967172,11834,4294964261,11860,121,272,4294967279
14215177,4294967292,2022,4294952341,6557,643,236,317,4294966911,16776,107,4294967124,4294967159,4294967190,11843,4294964251,11848,129,242,7
14221177,163,2030,4294952355,6575,618,223,319,4294966925,16735,110,4294967047,4294967171,4294967152,11879,4294964267,11872,128,252,7
14227177,4294967093,2043,4294952375,6525,610,216,335,4294966863,16712,64,4294967024,4294967182,4294967159,11866,4294964269,11878,132,237,14
14233177,4294967085,2089,4294952437,6576,606,265,324,4294966860,16684,74,4294967003,4294967165,4294967141,11871,4294964229,11869,141,220,8
14239177,140,2122,4294952398,6640,602,274,336,4294966906,16671,172,4294967002,4294967149,4294967148,11841,4294964281,11833,136,237,28
14245177,4294967212,2079,4294952417,6695,591,306,323,4294966889,16683,176,4294967029,4294967152,4294967126,11805,4294964266,11888,117,222,13
14251177,4294966973,2089,4294952497,6643,590,329,329,4294966939,16698,210,4294967092,4294967165,4294967101,11883,4294964231,11921,123,242,9
14257177,41,2068,4294952526,6577,557,355,340,4294966855,16730,189,4294967186,4294967207,4294967079,11853,4294964234,11875,117,246,26
14263177,71,2062,4294952471,6488,540,353,346,4294966878,16792,247,4294967285,4294967194,4294967074,11842,4294964282,11911,132,222,40
14269177,4294967038,2014,4294952435,6588,497,347,377,4294966845,16808,252,41,4294967167,4294967090,11877,4294964217,11892,126,226,23
14275177,4294967208,2054,4294952454,6567,435,372,368,4294966802,16806,245,105,4294967173,4294967110,11803,4294964226,11905,126,233,4294967294
14281177,93,2040,4294952392,6662,378,390,342,4294966815,16896,192,137,4294967127,4294967150,11830,4294964276,11902,127,243,14
14287177,4294967038,2048,4294952360,6772,328,375,328,4294966833,16915,173,128,4294967145,4294967162,11861,4294964256,11911,109,260,11
14293177,4294967048,2071,4294952321,6759,290,378,321,4294966899,16914,217,95,4294967168,4294967173,11790,4294964223,11944,97,227,3
14299177,99,2099,4294952303,6769,265,383,281,4294966836,16880,141,39,4294967142,4294967174,11840,4294964269,11869,105,237,0
14305177,4294967186,2110,4294952280,6852,272,342,279,4294966781,16875,118,4294967253,4294967147,4294967193,11823,4294964217,11849,100,247,14
14311177,4294967013,2137,4294952321,6804,299,309,283,4294966857,16853,131,4294967173,4294967152,4294967220,11828,4294964229,11943,104,239,4294967293
14317177,96,2153,4294952293,6719,318,293,257,4294966834,16815,88,4294967089,4294967144,4294967217,11851,4294964253,11920,119,235,17
14323177,71,2069,4294952316,6740,361,261,266,4294966890,16770,125,4294967007,4294967169,4294967231,11836,4294964199,11835,121,238,10
14329177,4294967049,2018,4294952298,6672,411,268,245,4294966878,16727,237,4294966941,4294967144,4294967220,11887,4294964198,11796,137,228,17
14335177,4294967289,1967,4294952379,6759,449,267,246,4294966887,16708,130,4294966938,4294967159,4294967188,11832,4294964243,11837,128,223,21
14341177,227,1955,4294952363,6606,530,280,253,4294966906,16714,161,4294966983,4294967159,4294967170,11882,4294964268,11907,157,215,17
14347177,4294967188,1928,4294952448,6624,577,274,243,4294966842,16662,131,4294967023,4294967159,4294967156,11862,4294964264,11888,167,215,16
14353177,4294967176,1914,4294952401,6609,604,262,232,4294966879,16671,163,4294967094,4294967137,4294967161,11865,4294964294,11880,182,220,14
14359177,232,1869,4294952424,6624,622,255,251,4294966878,16659,168,4294967157,4294967131,4294967176,11861,4294964307,11895,155,217,48
14365177,2,1984,4294952401,6675,625,254,261,4294966908,16677,206,4294967250,4294967127,4294967166,11815,4294964261,11863,169,229,22
14371177,4294967091,1994,4294952422,6602,621,212,242,4294966936,16788,218,64,4294967141,4294967159,11903,4294964255,11923,180,211,16
14377177,141,2096,4294952450,6691,583,208,250,4294966910,16781,205,134,4294967135,4294967178,11868,4294964255,11930,183,208,14
14383177,147,2152,4294952397,6616,543,184,211,4294966824,16813,186,169,4294967141,4294967190,11884,4294964251,11828,196,225,6
14389177,4294967132,2213,4294952465,6660,533,184,235,4294966826,16866,172,139,4294967163,4294967187,11864,4294964283,11922,200,215,25
14395177,31,2189,4294952419,6634,500,165,268,4294966798,16850,139,92,4294967147,4294967189,11888,4294964232,11889,183,220,20
14401177,175,2207,4294952454,6742,515,215,234,4294966841,16859,81,20,4294967113,4294967203,11850,4294964267,11891,186,223,8
14407177,4294967148,2146,4294952444,6645,489,216,249,4294966838,16836,67,4294967206,4294967135,4294967203,11869,4294964260,11880,187,239,10
14413177,4294967099,2078,4294952501,6580,478,249,268,4294966867,16792,135,4294967108,4294967143,4294967193,11823,4294964256,11869,166,219,7
14419177,85,1973,4294952516,6635,448,288,279,4294966901,16843,127,4294966982,4294967134,4294967145,11876,4294964212,11834,165,222,4294967286
14425177,4294967127,1930,4294952428,6542,397,293,313,4294966911,16808,87,4294966926,4294967142,4294967139,11881,4294964230,11806,160,225,4294967279
14431177,4294966854,1940,4294952417,6653,346,263,301,4294966890,16726,128,4294966916,4294967136,4294967151,11889,4294964256,11901,153,223,4294967279
14437177,4294967192,1995,4294952442,6695,290,267,288,4294966882,16714,202,4294966922,4294967172,4294967156,11816,4294964205,11865,157,235,4294967292
14443177,4294967196,1989,4294952348,6818,276,226,256,4294966834,16679,162,4294966964,4294967170,4294967127,11859,4294964221,11843,146,230,4294967275
14449177,4294966882,2035,4294952346,6737,274,188,247,4294966849,16697,198,4294967035,4294967166,4294967120,11809,4294964240,11879,148,220,4294967264
14455177,4294967173,2123,4294952344,6681,313,182,238,4294966843,16731,296,4294967113,4294967137,4294967166,11851,4294964243,11846,158,226,4294967262
14461177,85,2107,4294952334,6759,389,195,262,4294966853,16745,209,4294967202,4294967139,4294967198,11875,4294964220,11835,174,234,4294967260
14467177,4294967053,2124,4294952381,6710,453,175,307,4294966849,16679,171,9,4294967158,4294967153,11872,4294964257,11853,156,217,4294967252
14473177,4294967067,2124,4294952450,6584,537,152,315,4294966842,16774,194,66,4294967157,4294967155,11882,4294964235,11922,151,213,4294967275
14479177,133,2061,4294952390,6597,599,158,282,4294966860,16726,173,73,4294967175,4294967161,11870,4294964245,11923,147,238,4294967279
14485177,4294967208,1989,4294952549,6555,653,171,310,4294966827,16766,100,52,4294967175,4294967163,11891,4294964319,11846,145,235,4294967266
14491177,4294966980,1897,4294952474,6571,670,169,320,4294966791,16773,59,38,4294967149,4294967164,11848,4294964263,11839,153,236,4294967268
14497177,39,1830,4294952405,6623,694,185,325,4294966827,16791,0,1,4294967154,4294967152,11829,4294964246,11874,153,229,4294967264
14503177,36,1932,4294952406,6519,674,186,342,4294966863,16771,141,4294967239,4294967164,4294967137,11848,4294964315,11810,134,226,4294967268
14509177,4294966947,1917,4294952376,6571,645,207,341,4294966833,16805,123,4294967168,4294967174,4294967137,11863,4294964289,11847,131,209,4294967271
14515177,4294967171,1973,4294952380,6590,555,218,330,4294966877,16843,173,4294967107,4294967169,4294967115,11827,4294964286,11817,138,210,4294967286
14521177,110,2072,4294952328,6606,467,180,301,4294966864,16827,171,4294967068,4294967194,4294967108,11872,4294964232,11884,122,226,4294967267
14527177,4294967084,2094,4294952332,6551,415,188,293,4294966884,16818,209,4294967030,4294967141,4294967109,11894,4294964303,11825,125,196,4294967279
14533177,4294967079,2170,4294952331,6627,381,203,287,4294966868,16723,166,4294967022,4294967130,4294967139,11824,4294964285,11916,106,218,4294967288
14539177,129,2196,4294952341,6661,379,242,280,4294966864,16713,232,4294967031,4294967147,4294967134,11829,4294964286,11858,118,236,4294967287
14545177,4294967185,2190,4294952392,6607,398,276,275,4294966855,16742,184,4294967076,4294967132,4294967151,11846,4294964262,11875,121,215,5
14551177,4294966989,2112,4294952406,6586,400,299,277,4294966822,16753,217,4294967103,4294967147,4294967121,11841,4294964270,11919,130,243,4294967284
14557177,67,2077,4294952415,6671,427,281,280,4294966828,16764,220,4294967164,4294967126,4294967146,11807,4294964277,11828,116,223,5
14563177,34,2076,4294952466,6561,447,271,270,4294966849,16825,119,4294967226,4294967130,4294967153,11822,4294964279,11854,138,213,6
14569177,4294967019,1962,4294952485,6674,454,258,298,4294966812,16813,92,4294967260,4294967151,4294967195,11840,4294964282,11839,104,237,20
14575177,4294967266,2019,4294952467,6588,469,243,278,4294966821,16817,141,26,4294967123,4294967192,11871,4294964248,11882,137,241,25
14581177,175,1870,4294952434,6568,464,245,301,4294966823,16887,125,43,4294967140,4294967199,11861,4294964283,11858,154,241,22
14587177,4294967078,1881,4294952366,6629,488,232,329,4294966859,16864,93,2,4294967159,4294967197,11891,4294964290,11853,161,230,33
14593177,4294967076,1827,4294952375,6695,478,227,340,4294966831,16828,61,4294967279,4294967155,4294967216,11816,4294964227,11882,152,249,2
14599177,144,1922,4294952391,6623,464,258,339,4294966820,16837,111,4294967224,4294967149,4294967252,11850,4294964247,11842,159,252,11
14605177,4294967236,1967,4294952358,6738,448,239,306,4294966771,16809,116,4294967150,4294967150,4294967249,11792,4294964244,11800,171,229,20
14611177,4294967014,2018,4294952366,6705,449,223,276,4294966795,16833,95,4294967113,4294967115,4294967238,11864,4294964193,11878,167,241,33
14617177,82,2091,4294952356,6812,443,205,275,4294966835,16790,69,4294967067,4294967125,4294967268,11851,4294964259,11885,194,224,26
14623177,85,2092,4294952331,6754,438,185,253,4294966821,16736,86,4294967071,4294967134,4294967249,11821,4294964229,11791,159,261,31
14629177,4294967019,2087,4294952392,6663,469,169,265,4294966855,16714,63,4294967062,4294967167,4294967262,11877,4294964297,11849,176,238,41
14635177,4294967194,2104,4294952392,6596,495,188,252,4294966859,16743,111,4294967107,4294967157,4294967249,11840,4294964265,11871,161,260,32
14641177,121,2030,4294952428,6561,545,203,265,4294966891,16771,89,4294967146,4294967171,4294967230,11875,4294964285,11814,175,246,27
14647177,4294967050,2060,4294952504,6569,570,211,287,4294966834,16786,116,4294967200,4294967146,4294967227,11848,4294964238,11938,179,250,33
14653177,4294967060,2052,4294952439,6675,598,238,326,4294966859,16705,113,4294967232,4294967173,4294967229,11840,4294964253,11833,152,241,37
14659177,82,1929,4294952425,6662,574,241,305,4294966873,16768,236,4294967245,4294967141,4294967232,11837,4294964245,11905,153,219,39
14665177,4294967166,1895,4294952483,6562,596,238,272,4294966884,16719,85,4294967277,4294967180,4294967235,11906,4294964275,11885,164,253,17
14671177,4294966977,1967,4294952461,6544,581,237,256,4294966826,16764,79,4294967247,4294967179,4294967235,11817,4294964179,11863,169,239,25
14677177,55,1958,4294952459,6634,548,249,293,4294966866,16738,234,4294967260,4294967200,4294967227,11881,4294964175,11893,150,227,32
14683177,19,2015,4294952360,6702,492,222,349,4294966835,16749,165,4294967204,4294967163,4294967231,11879,4294964209,11905,152,240,18
14689177,4294966972,2068,4294952299,6682,438,203,354,4294966815,16721,183,4294967192,4294967166,4294967192,11864,4294964251,11875,142,238,22
14695177,4294967183,2092,4294952311,6563,407,206,342,4294966813,16772,181,4294967188,4294967166,4294967193,11835,4294964224,11911,135,249,11
14701177,107,2084,4294952350,6546,382,215,318,4294966835,16799,190,4294967143,4294967161,4294967195,11840,4294964256,11916,133,244,32
14707177,4294967074,2035,4294952433,6570,413,267,290,4294966787,16709,188,4294967127,4294967178,4294967194,11818,4294964252,11907,136,264,15
14713177,4294967074,2034,4294952417,6518,450,284,295,4294966785,16715,278,4294967094,4294967189,4294967171,11852,4294964175,11868,145,268,0
14719177,190,1989,4294952438,6693,453,331,296,4294966795,16694,166,4294967090,4294967166,4294967164,11857,4294964214,11924,128,272,5
14725177,2,1965,4294952446,6642,445,316,296,4294966822,16760,164,4294967126,4294967158,4294967139,11854,4294964211,11920,120,247,4294967282
14731177,4294967059,1913,4294952442,6680,409,311,276,4294966809,16761,97,4294967148,4294967153,4294967142,11860,4294964241,11925,135,229,4294967287
14737177,117,1953,4294952398,6742,399,297,286,4294966822,16788,155,4294967179,4294967162,4294967149,11888,4294964286,11862,118,242,4294967287
14743177,72,1962,4294952361,6629,367,287,257,4294966786,16786,187,4294967169,4294967178,4294967160,11872,4294964258,11897,134,241,4294967294
14749177,4294967022,1896,4294952360,6738,362,294,270,4294966778,16771,175,4294967189,4294967165,4294967125,11870,4294964287,11828,138,236,4294967293
14755177,4294967225,1992,4294952376,6574,382,256,292,4294966815,16805,167,4294967184,4294967157,4294967126,11903,4294964285,11858,163,223,4294967292
14761177,94,2038,4294952381,6628,402,247,292,4294966858,16816,216,4294967156,4294967148,4294967131,11879,4294964315,11907,153,221,4294967286
14767177,4294967030,2044,4294952391,6689,429,263,290,4294966877,16783,142,4294967156,4294967148,4294967121,11847,4294964295,11873,145,211,4294967286
14773177,4294967078,2074,4294952356,6661,455,240,262,4294966846,16781,207,4294967158,4294967148,4294967127,11841,4294964253,11871,160,224,4294967292
14779177,164,2111,4294952429,6611,490,254,246,4294966832,16784,90,4294967149,4294967166,4294967126,11852,4294964279,11839,146,238,4294967287
14785177,4294967195,2097,4294952412,6602,535,253,272,4294966807,16785,203,4294967101,4294967181,4294967129,11877,4294964261,11941,138,249,4294967288
14791177,4294966744,2072,4294952473,6584,517,278,280,4294966829,16741,199,4294967088,4294967160,4294967130,11869,4294964275,11934,144,263,4294967294
14797177,4294966702,2025,4294952445,6644,512,282,321,4294966798,16799,106,4294967067,4294967158,4294967128,11858,4294964294,11886,146,245,4294967282
14803177,4294966330,2050,4294952469,6671,485,273,325,4294966829,16752,130,4294967087,4294967144,4294967132,11832,4294964228,11798,144,223,9
14809177,4294966073,2026,4294952427,6598,455,292,300,4294966830,16777,246,4294967101,4294967171,4294967132,11870,4294964246,11823,144,234,3
14815177,4294967141,1986,4294952375,6585,443,286,319,4294966886,16769,151,4294967135,4294967144,4294967148,11852,4294964267,11857,144,241,4294967283
14821177,1237,2007,4294952359,6645,396,279,308,4294966862,16804,159,4294967176,4294967142,4294967169,11831,4294964266,11848,134,239,9
14827177,1712,1979,4294952323,6660,381,251,313,4294966858,16823,169,4294967206,4294967129,4294967158,11865,4294964263,11822,149,247,4294967292
14833177,1697,1991,4294952346,6714,366,251,332,4294966844,16805,105,4294967205,4294967159,4294967193,11895,4294964255,11932,156,231,12
14839177,1317,2065,4294952360,6664,328,249,304,4294966892,16799,172,4294967252,4294967156,4294967221,11896,4294964236,11886,175,236,6
14845177,76,2112,4294952371,6723,344,249,274,4294966839,16795,116,4294967246,4294967142,4294967231,11878,4294964240,11837,156,242,20
14851177,4294966288,2100,4294952399,6694,358,242,256,4294966824,16800,136,4294967241,4294967155,4294967232,11871,4294964252,11922,164,253,48
14857177,4294966208,2051,4294952441,6643,379,242,269,4294966821,16852,110,4294967239,4294967141,4294967237,11892,4294964275,11842,173,246,20
14863177,4294966150,2063,4294952475,6584,434,213,298,4294966816,16801,91,4294967218,4294967151,4294967235,11857,4294964275,11911,157,245,4294967294
14869177,4294966060,2061,4294952442,6567,498,235,320,4294966830,16772,210,4294967173,4294967132,4294967198,11836,4294964269,11903,165,230,28
14875177,4294966677,2033,4294952436,6611,528,253,332,4294966827,16774,179,4294967171,4294967115,4294967242,11859,4294964265,11921,159,242,14
14881177,4294967200,1909,4294952429,6560,561,220,334,4294966859,16743,137,4294967165,4294967141,4294967263,11879,4294964257,11910,148,227,4
14887177,4294967117,1908,4294952402,6630,552,232,349,4294966822,16727,184,4294967171,4294967162,4294967271,11857,4294964216,11936,147,218,19
14893177,4294967280,1892,4294952366,6645,562,238,321,4294966816,16724,148,4294967187,4294967155,4294967269,11838,4294964240,11910,144,241,39
14899177,367,1867,4294952315,6602,536,245,319,4294966818,16747,160,4294967194,4294967137,4294967247,11822,4294964209,11897,132,236,23
14905177,105,1863,4294952301,6654,505,258,290,4294966820,16794,175,4294967247,4294967135,4294967243,11831,4294964256,11820,142,229,5
14911177,4294967126,1901,4294952312,6679,441,233,285,4294966856,16736,60,4294967275,4294967110,4294967253,11868,4294964231,11869,138,241,25
14917177,121,1976,4294952299,6722,419,217,276,4294966861,16715,71,4294967273,4294967162,4294967236,11785,4294964201,11829,131,239,6
14923177,14,2017,4294952364,6661,412,220,245,4294966809,16652,86,4294967259,4294967203,4294967218,11816,4294964238,11857,141,267,1
14929177,4294966931,2025,4294952406,6519,419,224,265,4294966786,16714,194,4294967220,4294967204,4294967156,11821,4294964192,11797,142,235,24
14935177,4294967177,2045,4294952437,6510,449,256,290,4294966835,16694,129,4294967208,4294967207,4294967154,11842,4294964220,11861,149,228,9
14941177,74,1989,4294952508,6516,514,302,289,4294966824,16680,170,4294967202,4294967175,4294967130,11830,4294964228,11879,164,260,4294967290
14947177,4294967050,1965,4294952512,6408,582,341,327,4294966771,16680,177,4294967189,4294967172,4294967134,11847,4294964189,11852,183,229,4294967280
14953177,4294967067,1945,4294952512,6487,637,393,343,4294966745,16729,288,4294967189,4294967198,4294967104,11840,4294964201,11872,179,234,4294967280
14959177,52,1943,4294952519,6499,626,387,377,4294966744,16763,269,4294967203,4294967188,4294967090,11838,4294964248,11846,175,205,4294967284
14965177,4294967169,1900,4294952451,6573,618,400,385,4294966793,16810,267,4294967217,4294967181,4294967091,11815,4294964243,11864,178,238,4294967277
14971177,4294967005,1975,4294952393,6569,599,351,373,4294966776,16853,357,4294967242,4294967161,4294967099,11902,4294964279,11877,182,226,7
14977177,46,1957,4294952389,6596,512,345,395,4294966789,16869,260,4294967232,4294967148,4294967107,11855,4294964276,11842,175,220,4
14983177,40,2018,4294952390,6692,457,312,347,4294966797,16911,167,4294967245,4294967160,4294967141,11879,4294964250,11871,180,219,4294967281
14989177,4294967016,2045,4294952294,6731,425,315,344,4294966799,16847,216,4294967215,4294967154,4294967144,11915,4294964230,11911,166,216,4294967289
14995177,4294967197,2108,4294952348,6804,384,321,363,4294966825,16867,193,4294967172,4294967174,4294967147,11878,4294964251,11875,172,237,6
15001177,53,2111,4294952302,6759,359,323,311,4294966797,16796,153,4294967148,4294967131,4294967140,11945,4294964258,11966,158,220,11
15007177,4294967014,2102,4294952312,6826,336,332,312,4294966762,16700,260,4294967072,4294967159,4294967152,11919,4294964233,11904,153,238,20
15013177,4294967084,2113,4294952415,6770,369,336,299,4294966849,16695,179,4294967026,4294967161,4294967181,11902,4294964282,11915,149,236,26
15019177,177,2051,4294952386,6797,381,315,266,4294966806,16718,140,4294967028,4294967199,4294967166,11864,4294964291,11908,148,232,9
15025177,20,1959,4294952385,6816,401,324,265,4294966804,16760,1,4294967044,4294967176,4294967152,11874,4294964279,11880,134,229,11
15031177,4294967137,1915,4294952385,6700,375,281,252,4294966835,16755,19,4294967085,4294967135,4294967148,11891,4294964331,11896,141,253,14
15037177,152,1839,4294952357,6742,377,270,259,4294966880,16808,78,4294967132,4294967145,4294967123,11863,4294964257,11899,141,221,4
15043177,106,1810,4294952327,6592,361,258,253,4294966918,16817,193,4294967190,4294967157,4294967107,11853,4294964259,11893,140,256,28
15049177,4294967066,1839,4294952327,6731,373,240,267,4294966877,16809,140,4294967253,4294967171,4294967133,11860,4294964288,11903,150,234,44
15055177,16,1946,4294952365,6738,425,243,253,4294966848,16860,133,4294967289,4294967164,4294967132,11812,4294964288,11823,137,246,29
15061177,194,1941,4294952347,6748,433,202,233,4294966839,16842,86,17,4294967171,4294967156,11868,4294964265,11900,128,241,31
15067177,4294967146,1987,4294952357,6648,468,203,224,4294966796,16779,105,4294967288,4294967174,4294967153,11824,4294964271,11828,146,225,47
15073177,4294967222,2075,4294952313,6560,497,167,218,4294966781,16821,107,4294967266,4294967185,4294967174,11837,4294964232,11924,123,247,33
15079177,255,2061,4294952335,6603,552,160,214,4294966857,16830,216,4294967232,4294967167,4294967176,11836,4294964266,11788,134,249,19
15085177,7,2092,4294952380,6617,560,161,211,4294966800,16809,164,4294967173,4294967160,4294967186,11797,4294964298,11890,128,245,13
15091177,4294967099,2071,4294952445,6569,567,192,215,4294966824,16785,164,4294967117,4294967153,4294967183,11838,4294964231,11880,126,232,19
15097177,155,2039,4294952450,6538,568,215,226,4294966876,16784,93,4294967086,4294967149,4294967181,11793,4294964187,11826,138,239,20
15103177,68,2041,4294952488,6565,584,235,245,4294966847,16761,144,4294967069,4294967173,4294967162,11838,4294964179,11916,141,239,5
15109177,4294966990,1985,4294952498,6535,545,247,262,4294966806,16791,72,4294967037,4294967153,4294967181,11868,4294964204,11922,140,240,10
15115177,4294967197,1980,4294952459,6552,509,248,272,4294966853,16719,131,4294967061,4294967159,4294967169,11773,4294964211,11891,140,248,4294967292
15121177,43,1951,4294952455,6641,456,222,268,4294966818,16716,198,4294967088,4294967161,4294967180,11818,4294964198,11899,143,247,15
15127177,4294966958,1940,4294952438,6651,397,231,260,4294966801,16756,191,4294967148,4294967175,4294967182,11857,4294964201,11965,148,221,4294967292
15133177,4294966985,1908,4294952355,6600,365,237,253,4294966808,16781,194,4294967211,4294967162,4294967182,11849,4294964203,11885,127,218,4294967274
15139177,18,1931,4294952331,6650,327,237,250,4294966775,16800,192,4294967265,4294967135,4294967201,11872,4294964197,11854,142,212,6
15145177,4294967100,1965,4294952314,6679,322,279,249,4294966810,16820,108,3,4294967130,4294967175,11855,4294964209,11870,145,186,4294967273
15151177,4294966912,1987,4294952312,6669,293,269,258,4294966830,16869,193,30,4294967142,4294967224,11893,4294964222,11893,152,178,4294967273
15157177,4294967293,1977,4294952378,6669,274,265,215,4294966804,16819,156,14,4294967160,4294967214,11900,4294964245,11905,149,167,4294967274
15163177,4294967251,1978,4294952426,6659,294,255,236,4294966742,16846,146,4294967261,4294967169,4294967207,11872,4294964234,11895,147,177,4294967274
15169177,4294966955,2005,4294952432,6802,325,230,237,4294966750,16855,96,4294967198,4294967142,4294967208,11899,4294964274,11884,122,197,4294967285
15175177,4294967213,2001,4294952403,6657,332,191,218,4294966796,16777,128,4294967123,4294967168,4294967190,11897,4294964266,11861,138,210,4294967273
15181177,142,1952,4294952515,6695,392,185,222,4294966799,16748,145,4294967091,4294967145,4294967183,11866,4294964264,11748,161,205,4294967258
15187177,4294967137,1998,4294952473,6643,448,185,256,4294966754,16699,45,4294967044,4294967149,4294967183,11889,4294964219,11816,169,225,4294967254
15193177,4294967130,1969,4294952498,6554,541,194,284,4294966802,16701,140,4294967031,4294967147,4294967187,11858,4294964300,11829,143,208,4294967287
15199177,101,1941,4294952442,6619,623,221,311,4294966787,16692,188,4294967029,4294967168,4294967148,11895,4294964223,11822,158,217,4294967272
15205177,4294967155,1968,4294952434,6625,640,223,334,4294966792,16735,223,4294967072,4294967159,4294967108,11873,4294964238,11864,161,233,4294967282
15211177,4294966938,1992,4294952419,6612,669,193,323,4294966844,16715,244,4294967141,4294967168,4294967105,11841,4294964258,11828,151,238,4294967278
15217177,15,2000,4294952346,6602,640,172,322,4294966804,16780,247,4294967196,4294967136,4294967121,11862,4294964204,11821,154,248,4294967265
15223177,4294967285,2008,4294952353,6596,607,171,323,4294966781,16793,174,4294967264,4294967133,4294967108,11900,4294964252,11883,144,239,4294967268
15229177,4294966971,2034,4294952389,6560,582,147,346,4294966794,16830,242,34,4294967137,4294967119,11857,4294964267,11817,148,265,4294967277
15235177,4294967247,2017,4294952350,6632,556,168,344,4294966774,16814,169,63,4294967139,4294967119,11849,4294964266,11744,140,265,4294967274
15241177,159,2036,4294952399,6622,530,204,313,4294966772,16831,213,36,4294967163,4294967134,11856,4294964262,11826,150,252,4294967271
15247177,4294967088,2025,4294952330,6665,548,230,312,4294966778,16857,142,4294967288,4294967146,4294967161,11909,4294964299,11873,147,256,4294967272
15253177,4294967160,2035,4294952390,6602,512,239,286,4294966765,16831,146,4294967232,4294967140,4294967192,11865,4294964294,11840,169,267,4294967269
15259177,175,2015,4294952428,6592,482,230,267,4294966822,16823,117,4294967142,4294967148,4294967214,11849,4294964276,11942,137,257,4294967293
15265177,4294967187,1948,4294952364,6708,446,234,253,4294966786,16840,159,4294967080,4294967166,4294967228,11930,4294964318,11891,165,278,4294967282
15271177,4294966983,1919,4294952428,6660,402,235,256,4294966774,16762,125,4294967015,4294967148,4294967242,11863,4294964303,11888,157,256,7
15277177,81,2000,4294952438,6496,382,224,261,4294966785,16714,123,4294966984,4294967142,4294967240,11808,4294964269,11878,167,268,4294967291
15283177,66,1937,4294952364,6694,375,214,238,4294966816,16718,132,4294966966,4294967149,4294967202,11862,4294964291,11876,169,267,6
15289177,4294967024,1903,4294952381,6684,367,228,233,4294966847,16696,67,4294967003,4294967171,4294967191,11921,4294964305,11869,184,250,22
15295177,4294967229,1958,4294952327,6605,359,219,192,4294966798,16650,40,4294967043,4294967172,4294967175,11854,4294964294,11853,186,232,34
15301177,66,1975,4294952389,6602,351,213,223,4294966818,16657,191,4294967100,4294967166,4294967164,11867,4294964301,11850,165,247,21
15307177,4294967063,1933,4294952369,6650,359,219,237,4294966821,16678,81,4294967194,4294967174,4294967164,11852,4294964319,11880,182,256,28
15313177,4294967135,1952,4294952368,6581,389,198,234,4294966810,16733,171,4294967285,4294967164,4294967144,11844,4294964252,11845,165,255,36
15319177,200,1961,4294952343,6623,425,211,236,4294966757,16764,99,51,4294967154,4294967151,11836,4294964300,11881,167,256,30
15325177,4294967233,1990,4294952367,6610,443,224,238,4294966817,16800,192,108,4294967178,4294967149,11808,4294964253,11860,162,249,56
15331177,4294966973,1903,4294952349,6525,495,232,246,4294966788,16832,158,107,4294967172,4294967170,11819,4294964248,11850,147,246,59
15337177,23,1940,4294952352,6592,514,239,241,4294966803,16811,119,74,4294967186,4294967175,11802,4294964252,11924,133,239,65
15343177,4294967258,1984,4294952359,6615,500,222,234,4294966792,16772,170,12,4294967174,4294967179,11818,4294964260,11910,165,222,42
15349177,4294966931,1971,4294952399,6669,509,223,244,4294966780,16823,162,4294967268,4294967167,4294967189,11830,4294964242,11918,139,216,40
15355177,4294967211,1977,4294952463,6606,495,220,252,4294966755,16770,57,4294967153,4294967173,4294967186,11807,4294964205,11873,149,203,61
15361177,124,1999,4294952428,6735,523,205,246,4294966743,16808,141,4294967061,4294967161,4294967194,11776,4294964234,11917,133,199,40
15367177,4294967082,2065,4294952394,6706,498,196,236,4294966817,16766,188,4294966997,4294967152,4294967182,11789,4294964222,11865,164,214,31
15373177,4294967121,2046,4294952442,6644,525,214,266,4294966828,16739,114,4294966960,4294967156,4294967177,11811,4294964266,11901,174,206,15
15379177,149,1996,4294952468,6693,551,238,287,4294966805,16741,226,4294966953,4294967175,4294967171,11802,4294964250,11913,162,233,32
15385177,4294967208,2070,4294952466,6549,543,242,284,4294966793,16742,215,4294966979,4294967167,4294967151,11791,4294964219,11839,132,197,36
15391177,4294967008,2003,4294952513,6556,516,248,302,4294966795,16715,223,4294967018,4294967157,4294967151,11807,4294964213,11824,148,200,24
15397177,62,1976,4294952523,6637,496,260,313,4294966766,16700,214,4294967108,4294967154,4294967150,11802,4294964232,11903,131,213,24
15403177,24,1985,4294952476,6539,422,262,309,4294966851,16773,280,4294967156,4294967143,4294967154,11817,4294964241,11835,130,201,16
15409177,4294967077,2016,4294952481,6549,401,276,322,4294966772,16766,213,4294967246,4294967157,4294967143,11839,4294964242,11875,109,206,29
15415177,28,2062,4294952442,6658,347,284,320,4294966762,16774,246,4294967292,4294967168,4294967155,11863,4294964209,11847,133,206,23
15421177,148,1928,4294952397,6586,340,286,316,4294966759,16751,252,9,4294967167,4294967167,11849,4294964225,11931,138,217,4294967295
15427177,4294967046,1840,4294952322,6596,333,307,335,4294966683,16780,164,2,4294967173,4294967180,11894,4294964238,11836,131,233,4294967272
15433177,4294967015,1844,4294952302,6554,290,322,339,4294966717,16872,154,4294967282,4294967187,4294967190,11888,4294964266,11826,136,213,16
15439177,75,1865,4294952340,6646,304,345,339,4294966708,16793,250,4294967264,4294967157,4294967178,11895,4294964306,11830,141,208,4294967279
15445177,4294967168,1913,4294952334,6773,296,344,326,4294966705,16815,196,4294967199,4294967149,4294967206,11894,4294964307,11848,134,225,4294967292
15451177,4294967022,1876,4294952305,6657,302,310,283,4294966752,16778,203,4294967132,4294967164,4294967219,11900,4294964285,11884,135,228,4
15457177,133,1964,4294952329,6672,292,246,284,4294966834,16712,214,4294967070,4294967162,4294967199,11946,4294964260,11849,117,214,4294967291
15463177,31,2029,4294952382,6673,339,215,273,4294966762,16722,218,4294967039,4294967167,4294967177,11930,4294964322,11877,130,205,4294967294
15469177,4294966766,2043,4294952360,6626,388,208,283,4294966794,16735,97,4294967041,4294967159,4294967163,11883,4294964285,11858,143,211,25
15475177,4294966600,2082,4294952424,6595,462,199,301,4294966806,16702,156,4294967043,4294967128,4294967159,11919,4294964275,11838,146,220,4294967290
15481177,4294966353,2139,4294952428,6645,533,230,297,4294966813,16727,109,4294967089,4294967127,4294967161,11898,4294964252,11854,124,204,12
15487177,4294966199,2096,4294952436,6672,636,267,330,4294966800,16710,123,4294967111,4294967145,4294967174,11899,4294964258,11888,144,244,4294967294
15493177,4294967176,2074,4294952455,6702,719,275,358,4294966828,16726,119,4294967166,4294967169,4294967159,11907,4294964255,11826,134,232,4294967287
15499177,1426,1939,4294952427,6648,754,247,364,4294966822,16758,160,4294967215,4294967181,4294967169,11962,4294964280,11831,150,225,4294967295
15505177,1713,1803,4294952427,6558,696,259,379,4294966809,16731,114,4294967258,4294967153,4294967150,11882,4294964246,11902,145,239,21
15511177,1663,1783,4294952271,6521,670,269,386,4294966807,16763,94,4294967293,4294967172,4294967150,11952,4294964253,11850,116,246,6
15517177,1156,1792,4294952320,6562,620,257,370,4294966835,16732,135,2,4294967156,4294967148,11877,4294964241,11850,111,234,19
15523177,100,1858,4294952279,6628,540,269,322,4294966829,16802,186,10,4294967133,4294967165,11893,4294964224,11900,111,244,8
15529177,4294966213,1933,4294952255,6643,449,234,281,4294966743,16796,128,4294967275,4294967157,4294967151,11837,4294964248,11928,121,229,18
15535177,4294966018,2056,4294952272,6731,373,186,249,4294966768,16832,171,4294967260,4294967139,4294967147,11855,4294964257,11802,131,239,4294967287
15541177,4294966189,2124,4294952303,6713,334,191,197,4294966779,16800,129,4294967219,4294967132,4294967168,11853,4294964211,11881,138,238,20
15547177,4294966109,2185,4294952349,6774,288,162,193,4294966702,16784,186,4294967200,4294967114,4294967172,11823,4294964218,11904,142,244,4294967293
15553177,4294966510,2106,4294952417,6661,289,168,222,4294966754,16765,143,4294967190,4294967130,4294967173,11808,4294964279,11933,151,268,4
15559177,4294967213,2071,4294952362,6665,367,205,215,4294966693,16823,104,4294967155,4294967150,4294967174,11849,4294964221,11922,154,253,4294967288
15565177,4294967262,2018,4294952458,6663,447,209,217,4294966709,16778,205,4294967181,4294967173,4294967157,11815,4294964242,11899,152,274,4294967292
15571177,4294967205,1939,4294952452,6600,507,240,214,4294966671,16789,230,4294967183,4294967182,4294967193,11849,4294964271,11879,150,260,15
15577177,311,1827,4294952422,6558,550,229,237,4294966752,16767,145,4294967198,4294967161,4294967187,11796,4294964225,11884,169,261,19
15583177,245,1800,4294952403,6547,557,240,222,4294966716,16826,90,4294967176,4294967157,4294967200,11810,4294964252,11873,156,247,4294967295
15589177,4294967176,1803,4294952395,6544,533,212,232,4294966756,16846,130,4294967170,4294967148,4294967209,11779,4294964261,11800,192,262,0
15595177,37,1808,4294952344,6481,495,177,221,4294966786,16749,135,4294967171,4294967185,4294967216,11842,4294964262,11889,181,256,7
15601177,142,1921,4294952369,6557,450,157,229,4294966753,16727,112,4294967183,4294967149,4294967197,11834,4294964263,11885,165,245,7
15607177,4294967048,1955,4294952322,6655,415,152,213,4294966773,16763,192,4294967185,4294967182,4294967210,11857,4294964286,11814,190,244,4294967285
15613177,4294967048,2030,4294952383,6639,407,180,206,4294966777,16772,66,4294967167,4294967197,4294967173,11853,4294964239,11884,191,238,19
15619177,80,2022,4294952317,6586,419,190,205,4294966790,16752,96,4294967151,4294967157,4294967162,11821,4294964253,11912,191,225,4
15625177,4294967158,1981,4294952397,6608,462,216,197,4294966823,16777,115,4294967131,4294967164,4294967157,11866,4294964213,11864,200,229,10
15631177,4294967005,1973,4294952450,6616,519,249,235,4294966785,16769,139,4294967154,4294967154,4294967168,11821,4294964270,11847,182,234,5
15637177,89,2033,4294952471,6526,535,274,304,4294966702,16783,130,4294967178,4294967151,4294967166,11867,4294964269,11872,181,216,14
15643177,12,2023,4294952485,6478,528,271,305,4294966713,16757,235,4294967216,4294967148,4294967178,11809,4294964291,11864,191,244,2
15649177,4294966941,1930,4294952497,6516,497,282,299,4294966651,16793,207,4294967258,4294967107,4294967171,11875,4294964243,11855,183,204,4294967291
15655177,4294967176,1872,4294952456,6436,458,291,300,4294966748,16829,156,4294967268,4294967102,4294967190,11915,4294964272,11870,212,207,2
15661177,47,1865,4294952410,6539,407,296,281,4294966808,16825,224,27,4294967110,4294967232,11871,4294964232,11943,196,203,3
15667177,4294967012,1914,4294952348,6569,358,324,278,4294966761,16840,91,25,4294967140,4294967257,11917,4294964226,11876,181,208,4294967275
15673177,4294967059,1906,4294952314,6637,342,322,289,4294966743,16836,108,33,4294967144,4294967255,11873,4294964232,11917,178,201,4294967288
15679177,119,1989,4294952279,6686,364,332,255,4294966659,16865,107,3,4294967177,4294967280,11921,4294964231,11930,183,221,15
15685177,4294967178,1976,4294952262,6777,367,287,266,4294966689,16790,118,4294967230,4294967172,4,11824,4294964261,11904,178,190,0
15691177,4294967001,1980,4294952295,6672,386,277,238,4294966741,16785,128,4294967146,4294967135,19,11903,4294964251,11858,171,194,14
15697177,84,1995,4294952323,6736,431,236,245,4294966765,16783,128,4294967106,4294967147,0,11863,4294964260,11908,185,192,20
15703177,4294967280,1968,4294952340,6674,466,240,250,4294966753,16741,90,4294967073,4294967147,4294967294,11850,4294964242,11899,166,209,9
15709177,4294967045,1949,4294952464,6618,509,243,243,4294966812,16699,83,4294967051,4294967155,4294967295,11841,4294964250,11884,157,192,15
15715177,51,1907,4294952466,6553,552,258,231,4294966756,16687,135,4294967035,4294967175,4294967288,11857,4294964243,11876,151,191,8
15721177,235,1882,4294952520,6593,581,279,267,4294966837,16658,185,4294967070,4294967195,4294967279,11877,4294964258,11895,165,193,28
15727177,4294967195,1860,4294952504,6621,608,278,265,4294966722,16689,195,4294967120,4294967191,4294967270,11870,4294964244,11792,169,193,22
15733177,4294967212,1811,4294952466,6654,579,278,272,4294966733,16703,189,4294967184,4294967157,4294967255,11878,4294964288,11845,148,204,10
15739177,225,1835,4294952397,6543,556,271,261,4294966754,16713,166,4294967240,4294967167,4294967258,11859,4294964241,11791,165,173,16
15745177,4294967277,1897,4294952350,6644,526,262,251,4294966737,16744,186,5,4294967173,4294967260,11868,4294964280,11849,149,206,35
15751177,4294967096,1969,4294952377,6614,444,253,246,4294966745,16779,119,43,4294967172,4294967250,11882,4294964208,11867,146,216,9
15757177,147,2078,4294952342,6707,398,214,224,4294966784,16815,183,59,4294967176,4294967241,11885,4294964250,11861,147,208,14
15763177,107,2066,4294952290,6620,319,226,201,4294966828,16871,160,37,4294967150,4294967240,11836,4294964254,11838,134,212,4294967293
15769177,4294966985,2053,4294952298,6562,303,222,198,4294966785,16830,194,5,4294967153,4294967240,11877,4294964249,11789,132,207,4
15775177,6,2078,4294952390,6517,277,248,170,4294966768,16868,130,4294967240,4294967151,4294967260,11862,4294964232,11877,135,239,4294967277
15781177,142,2025,4294952387,6534,294,291,189,4294966770,16772,159,4294967155,4294967160,4294967264,11855,4294964198,11843,132,222,4294967277
15787177,4294967026,2082,4294952403,6536,287,303,212,4294966742,16772,140,4294967071,4294967154,4294967264,11865,4294964256,11867,128,232,4294967294
15793177,4294967031,2007,4294952395,6573,325,306,215,4294966808,16654,133,4294966986,4294967148,4294967261,11875,4294964237,11838,131,233,4294967283
15799177,54,1998,4294952387,6571,339,299,212,4294966810,16648,189,4294966930,4294967163,4294967207,11870,4294964236,11887,128,224,4294967278
15805177,4294967108,1994,4294952466,6726,364,270,225,4294966797,16647,162,4294966912,4294967146,4294967184,11801,4294964255,11813,120,244,4294967286
15811177,4294966941,1948,4294952469,6761,398,212,254,4294966804,16695,102,4294966942,4294967163,4294967159,11890,4294964209,11831,134,248,4294967295
15817177,4294967291,1989,4294952456,6796,419,202,253,4294966725,16697,151,4294967038,4294967147,4294967136,11866,4294964206,11882,130,231,4294967281
15823177,4294967231,2033,4294952424,6760,442,145,258,4294966712,16715,108,4294967114,4294967159,4294967128,11872,4294964259,11863,140,242,4294967263
15829177,4294966921,2036,4294952368,6752,486,138,258,4294966706,16684,172,4294967194,4294967173,4294967136,11855,4294964218,11866,159,230,4294967286
15835177,4294967171,2050,4294952353,6704,520,128,286,4294966730,16706,60,4294967281,4294967201,4294967117,11898,4294964218,11807,179,212,4294967280
15841177,99,2025,4294952443,6647,564,108,272,4294966736,16759,32,48,4294967172,4294967129,11895,4294964271,11834,187,223,4294967280
15847177,4294967052,1978,4294952401,6642,621,127,278,4294966747,16784,94,76,4294967143,4294967106,11894,4294964259,11856,184,215,4294967266
15853177,4294967078,1932,4294952406,6612,623,130,283,4294966779,16868,120,65,4294967138,4294967121,11874,4294964303,11853,204,208,4294967287
15859177,93,1855,4294952433,6573,608,140,318,4294966785,16879,114,10,4294967158,4294967111,11883,4294964254,11865,209,195,4294967291
15865177,4294967158,1820,4294952429,6506,571,140,293,4294966731,16846,129,4294967226,4294967172,4294967106,11908,4294964238,11805,199,228,4294967279
15871177,4294967008,1837,4294952422,6504,514,179,303,4294966703,16832,90,4294967133,4294967228,4294967111,11949,4294964242,11810,188,231,1
15877177,59,1879,4294952381,6551,469,182,321,4294966710,16776,113,4294967002,4294967203,4294967145,11853,4294964307,11876,210,210,4294967286
15883177,60,1880,4294952361,6538,415,193,311,4294966783,16758,279,4294966948,4294967157,4294967148,11887,4294964284,11884,201,214,4294967285
15889177,4294967003,1897,4294952350,6486,396,224,295,4294966803,16722,169,4294966917,4294967167,4294967146,11922,4294964244,11843,200,230,4294967289
15895177,4294967238,1921,4294952371,6460,389,232,319,4294966769,16666,185,4294966915,4294967159,4294967137,11838,4294964275,11861,190,248,10
15901177,83,1895,4294952330,6442,409,232,341,4294966803,16735,65,4294966978,4294967154,4294967102,11896,4294964252,11904,194,239,4294967274
15907177,4294966993,1936,4294952287,6522,415,246,334,4294966772,16752,35,4294967067,4294967161,4294967123,11836,4294964268,11854,177,251,0
15913177,4294967021,1972,4294952350,6571,409,292,349,4294966782,16789,152,4294967166,4294967174,4294967149,11849,4294964269,11866,155,261,0
15919177,93,1983,4294952345,6676,422,266,305,4294966740,16768,207,2,4294967213,4294967153,11873,4294964246,11874,132,253,4294967289
15925177,4294967186,1999,4294952343,6653,419,242,291,4294966689,16855,116,89,4294967222,4294967183,11860,4294964253,11856,114,261,1
15931177,4294967024,2038,4294952339,6593,404,250,293,4294966724,16884,86,126,4294967215,4294967179,11864,4294964290,11849,102,278,13
15937177,109,1993,4294952364,6573,446,217,302,4294966715,16877,204,101,4294967175,4294967190,11791,4294964227,11840,110,280,13
15943177,34,2045,4294952346,6666,488,210,329,4294966747,16848,232,43,4294967213,4294967193,11888,4294964265,11926,119,299,21
15949177,4294967037,2061,4294952355,6744,529,193,317,4294966742,16834,147,4294967274,4294967217,4294967216,11831,4294964259,11834,104,287,1
15955177,9,2034,4294952366,6765,582,174,275,4294966744,16845,257,4294967184,4294967197,4294967233,11885,4294964254,11839,121,249,4294967293
15961177,192,2054,4294952409,6766,619,164,260,4294966751,16846,177,4294967072,4294967168,4294967263,11848,4294964276,11855,118,258,24
15967177,4294967116,2036,4294952373,6637,609,148,275,4294966758,16789,242,4294966983,4294967144,4294967251,11841,4294964226,11818,124,251,27
15973177,4294967115,1967,4294952371,6615,623,159,277,4294966773,16731,217,4294966913,4294967160,4294967265,11845,4294964254,11898,102,251,26
15979177,144,1907,4294952423,6645,582,164,266,4294966792,16677,188,4294966904,4294967167,4294967257,11834,4294964279,11885,108,239,16
15985177,4294967177,1883,4294952376,6612,535,147,256,4294966779,16682,235,4294966932,4294967166,4294967240,11841,4294964264,11806,103,236,38
15991177,4294966982,1907,4294952404,6685,482,169,223,4294966794,16697,215,4294966987,4294967156,4294967241,11823,4294964296,11920,121,223,22
15997177,7,1895,4294952352,6573,446,191,203,4294966825,16706,155,4294967073,4294967150,4294967246,11848,4294964298,11852,123,236,38
16003177,4294967230,1902,4294952378,6578,376,161,211,4294966754,16673,134,4294967188,4294967160,4294967242,11835,4294964273,11850,125,244,19
16009177,4294966887,1895,4294952372,6592,334,196,212,4294966767,16692,162,4294967292,4294967149,4294967237,11789,4294964222,11945,138,247,24
16015177,4294967129,1922,4294952363,6559,308,209,190,4294966733,16750,176,100,4294967151,4294967227,11864,4294964266,11887,158,217,34
16021177,34,1956,4294952300,6648,262,182,151,4294966711,16841,77,153,4294967123,4294967236,11815,4294964270,11918,117,230,34
16027177,4294967008,1993,4294952298,6687,247,196,144,4294966694,16852,175,178,4294967116,4294967268,11840,4294964180,11855,136,226,40
16033177,4294967070,2021,4294952365,6653,226,198,129,4294966765,16888,193,164,4294967112,4294967277,11831,4294964208,11779,136,209,38
16039177,129,2034,4294952379,6600,254,184,125,4294966753,16903,152,111,4294967119,4294967260,11880,4294964256,11869,156,224,47
16045177,4294967220,2016,4294952364,6594,281,182,121,4294966740,16885,32,3,4294967121,4294967259,11826,4294964193,11868,152,213,35
16051177,4294967078,1998,4294952362,6571,325,158,168,4294966720,16804,121,4294967166,4294967118,4294967280,11887,4294964260,11925,160,211,41
16057177,175,1910,4294952392,6485,380,174,163,4294966760,16816,152,4294967076,4294967150,4294967285,11898,4294964240,11920,149,238,34
16063177,134,1957,4294952417,6454,427,201,190,4294966726,16766,169,4294967002,4294967141,4294967281,11903,4294964233,11935,156,233,20
16069177,4294967096,1935,4294952415,6473,466,210,202,4294966736,16756,220,4294966941,4294967145,4294967263,11868,4294964250,11838,132,214,16
16075177,46,1937,4294952389,6436,504,221,199,4294966823,16749,100,4294966912,4294967128,4294967247,11913,4294964217,11874,137,240,24
16081177,170,1918,4294952379,6566,515,216,191,4294966804,16675,135,4294966914,4294967094,4294967241,11871,4294964235,11902,151,237,4
16087177,4294967085,1952,4294952404,6487,502,224,232,4294966834,16618,199,4294966967,4294967124,4294967229,11906,4294964275,11870,151,249,3
16093177,4294967093,1916,4294952343,6577,493,228,244,4294966781,16710,258,4294967067,4294967143,4294967219,11884,4294964228,11856,143,255,17
16099177,100,1976,4294952369,6523,485,223,234,4294966775,16678,193,4294967179,4294967129,4294967199,11877,4294964211,11830,145,245,4294967295
16105177,4294967150,1997,4294952400,6624,507,216,257,4294966718,16723,226,4294967270,4294967138,4294967195,11883,4294964213,11862,148,261,1
16111177,4294967013,2041,4294952454,6658,491,213,259,4294966706,16702,127,29,4294967135,4294967206,11884,4294964223,11832,159,260,4294967288
16117177,78,1982,4294952446,6582,497,221,262,4294966744,16724,199,80,4294967100,4294967195,11866,4294964226,11865,135,271,4294967288
16123177,4294967136,2016,4294952494,6608,459,232,271,4294966757,16774,115,107,4294967119,4294967160,11875,4294964166,11889,142,282,5
16129177,4294966428,1948,4294952452,6575,458,260,255,4294966786,16792,160,75,4294967137,4294967140,11898,4294964214,11804,146,255,0
16135177,4294966261,1881,4294952414,6566,447,253,289,4294966763,16809,78,2,4294967139,4294967131,11853,4294964238,11915,175,255,4294967270
16141177,4294966324,1936,4294952429,6564,412,288,279,4294966755,16789,131,4294967197,4294967176,4294967121,11872,4294964182,11887,165,261,4294967271
16147177,4294966708,1902,4294952329,6571,399,273,261,4294966751,16836,139,4294967086,4294967173,4294967096,11880,4294964230,11818,164,270,4294967290
16153177,703,1920,4294952341,6559,370,286,264,4294966740,16769,255,4294967004,4294967168,4294967101,11839,4294964247,11850,179,268,4294967293
16159177,1708,1966,4294952351,6554,345,279,267,4294966764,16764,185,4294966960,4294967157,4294967120,11847,4294964268,11858,171,250,4294967274
16165177,1712,1987,4294952311,6517,326,273,269,4294966761,16666,275,4294966941,4294967125,4294967106,11840,4294964265,11866,183,246,4294967288
16171177,1105,2077,4294952258,6534,321,263,261,4294966758,16641,173,4294966932,4294967143,4294967115,11899,4294964260,11874,190,254,4294967282
16177177,456,2059,4294952343,6512,358,255,268,4294966745,16610,313,4294966955,4294967173,4294967142,11847,4294964269,11885,208,239,4294967282
16183177,4294966804,2122,4294952344,6608,383,240,260,4294966727,16660,198,4294967047,4294967169,4294967077,11878,4294964305,11826,190,237,4294967274
16189177,4294965894,2105,4294952327,6623,457,234,253,4294966706,16742,216,4294967130,4294967153,4294967051,11867,4294964271,11884,200,245,4294967294
16195177,4294966010,2029,4294952378,6605,487,235,250,4294966701,16746,196,4294967210,4294967149,4294967050,11882,4294964289,11783,186,243,2
16201177,4294966421,1964,4294952387,6556,521,211,247,4294966770,16785,138,4294967272,4294967159,4294967033,11862,4294964298,11863,191,242,5
16207177,4294966432,1937,4294952417,6585,534,223,247,4294966724,16774,118,3,4294967184,4294967026,11770,4294964239,11911,189,256,4294967293
16213177,4294966853,1825,4294952389,6546,554,256,258,4294966733,16855,173,4294967281,4294967165,4294967044,11798,4294964281,11825,157,253,4294967293
16219177,166,1788,4294952397,6500,621,257,293,4294966710,16841,122,4294967263,4294967169,4294967038,11839,4294964227,11875,144,234,4294967288
16225177,70,1849,4294952390,6344,614,263,317,4294966740,16850,183,4294967255,4294967148,4294967077,11821,4294964287,11843,152,236,4294967288
16231177,4294967231,1836,4294952404,6480,625,281,307,4294966692,16913,19,4294967187,4294967138,4294967096,11901,4294964270,11848,144,258,4294967270
16237177,256,1878,4294952416,6492,620,288,312,4294966723,16868,190,4294967130,4294967148,4294967110,11830,4294964228,11894,142,238,17
16243177,137,1982,4294952393,6583,601,268,309,4294966769,16881,140,4294967079,4294967143,4294967126,11808,4294964280,11846,145,248,26
16249177,4294967063,2058,4294952452,6679,575,257,301,4294966717,16888,161,4294967037,4294967146,4294967142,11866,4294964230,11883,130,256,17
16255177,0,2081,4294952417,6795,549,237,302,4294966760,16803,121,4294967021,4294967130,4294967187,11871,4294964252,11853,155,225,25
16261177,126,2054,4294952422,6728,497,223,293,4294966743,16735,201,4294967007,4294967141,4294967205,11848,4294964253,11807,127,240,3
16267177,4294967054,2064,4294952375,6722,492,240,285,4294966786,16713,155,4294967032,4294967156,4294967211,11842,4294964234,11909,124,245,24
16273177,4294967117,2008,4294952343,6640,444,257,288,4294966804,16689,101,4294967059,4294967147,4294967211,11869,4294964274,11797,126,228,27
16279177,158,1906,4294952361,6555,433,255,270,4294966813,16704,150,4294967123,4294967112,4294967192,11839,4294964206,11872,136,244,24
16285177,4294967236,1936,4294952411,6543,425,313,285,4294966808,16719,120,4294967160,4294967152,4294967182,11851,4294964221,11841,119,209,20
16291177,4294967049,1859,4294952399,6385,430,340,289,4294966832,16708,98,4294967227,4294967151,4294967179,11872,4294964278,11860,131,216,24
16297177,56,1888,4294952423,6389,427,338,303,4294966763,16738,227,7,4294967191,4294967182,11878,4294964284,11814,148,198,32
16303177,4294967238,1876,4294952354,6403,395,372,292,4294966742,16789,176,79,4294967164,4294967177,11847,4294964200,11887,128,200,32
16309177,4294966871,1914,4294952359,6514,380,358,297,4294966741,16880,195,132,4294967132,4294967208,11861,4294964215,11905,142,214,31
16315177,4294967142,1960,4294952402,6493,347,324,272,4294966732,16876,150,153,4294967114,4294967227,11831,4294964220,11868,127,191,21
16321177,42,2008,4294952282,6733,317,318,278,4294966679,16881,232,160,4294967123,4294967272,11860,4294964222,11895,147,201,22
16327177,4294967023,2079,4294952249,6690,311,287,266,4294966737,16875,206,150,4294967132,14,11829,4294964224,11847,124,212,13
16333177,4294967123,2019,4294952211,6750,366,256,303,4294966692,16906,160,94,4294967131,28,11816,4294964200,11847,137,203,19
16339177,162,2080,4294952250,6671,465,247,295,4294966687,16901,201,42,4294967132,39,11852,4294964205,11835,141,188,16
16345177,4294967223,2068,4294952295,6762,569,271,299,4294966723,16876,237,4294967265,4294967127,78,11863,4294964256,11913,144,193,23
16351177,4294967068,1988,4294952329,6606,667,241,267,4294966674,16827,199,4294967178,4294967140,101,11823,4294964224,11862,138,184,16
16357177,159,1922,4294952345,6684,704,203,249,4294966703,16796,138,4294967117,4294967119,105,11851,4294964274,11844,137,202,25
16363177,116,1948,4294952362,6650,726,195,247,4294966749,16732,206,4294967088,4294967151,141,11864,4294964199,11841,136,211,19
16369177,4294967075,1918,4294952374,6638,714,195,212,4294966802,16723,202,4294967077,4294967151,122,11841,4294964233,11851,139,205,19
16375177,31,1878,4294952365,6556,674,192,217,4294966822,16684,207,4294967069,4294967139,96,11858,4294964247,11899,138,202,29
16381177,172,1842,4294952389,6631,640,153,198,4294966795,16657,131,4294967131,4294967125,61,11888,4294964239,11876,147,198,3
16387177,4294967099,1903,4294952336,6553,597,181,181,4294966794,16660,147,4294967187,4294967109,46,11856,4294964269,11832,161,204,4294967295
16393177,4294967164,1957,4294952393,6481,539,169,187,4294966826,16666,195,4294967280,4294967141,25,11898,4294964300,11806,172,190,9
16399177,209,2000,4294952332,6558,474,166,183,4294966767,16674,181,54,4294967150,28,11861,4294964236,11823,158,218,4
16405177,11,2040,4294952336,6489,435,143,169,4294966741,16748,141,121,4294967142,41,11866,4294964233,11804,171,217,14
16411177,4294967157,2119,4294952406,6475,385,174,158,4294966729,16771,212,118,4294967100,21,11900,4294964242,11864,180,245,6
16417177,208,2041,4294952400,6524,347,190,181,4294966755,16758,121,124,4294967109,36,11894,4294964223,11830,173,232,4294967285
16423177,147,2007,4294952428,6559,359,229,186,4294966783,16763,128,121,4294967134,19,11843,4294964228,11873,150,232,15
16429177,4294967072,2044,4294952410,6517,355,270,204,4294966742,16829,138,86,4294967110,2,11830,4294964233,11844,149,244,13
16435177,4294967294,1998,4294952425,6583,382,294,214,4294966762,16816,196,22,4294967095,14,11897,4294964270,11873,161,235,4294967293
16441177,150,1961,4294952388,6553,396,284,214,4294966756,16814,180,4294967252,4294967112,27,11893,4294964256,11869,150,229,4294967287
16447177,4294967065,1873,4294952399,6579,417,267,227,4294966754,16755,145,4294967185,4294967121,18,11894,4294964251,11830,158,232,4294967283
16453177,4294967050,1869,4294952384,6600,440,261,259,4294966785,16721,89,4294967113,4294967125,4294967273,11873,4294964273,11912,178,220,4294967275
16459177,48,1905,4294952361,6578,450,233,265,4294966743,16679,136,4294967058,4294967123,4294967257,11867,4294964261,11854,161,227,4294967283
16465177,4294967068,1956,4294952324,6620,515,190,260,4294966821,16702,101,4294967039,4294967105,4294967256,11851,4294964236,11863,169,228,4294967276
16471177,4294966924,1955,4294952346,6677,540,167,271,4294966833,16690,125,4294967030,4294967107,4294967243,11868,4294964257,11874,157,221,4294967285
16477177,9,1956,4294952366,6637,589,151,272,4294966836,16655,106,4294967074,4294967099,4294967201,11853,4294964211,11875,191,237,4294967271
16483177,4294967242,2002,4294952368,6563,635,164,268,4294966795,16702,164,4294967140,4294967107,4294967188,11919,4294964221,11881,187,221,4294967270
16489177,4294966911,1973,4294952409,6683,674,187,274,4294966786,16744,89,4294967195,4294967133,4294967157,11903,4294964250,11828,178,225,4294967262
16495177,4294967215,1930,4294952409,6670,701,196,280,4294966759,16743,183,4294967252,4294967117,4294967163,11867,4294964245,11836,178,217,4294967261
16501177,99,1953,4294952415,6583,699,222,289,4294966709,16716,135,0,4294967124,4294967169,11886,4294964245,11818,186,237,4294967251
16507177,4294967014,1946,4294952405,6549,677,220,317,4294966706,16762,152,28,4294967119,4294967148,11881,4294964252,11851,178,214,4294967270
16513177,4294967079,1866,4294952401,6497,608,232,296,4294966719,16764,171,58,4294967120,4294967168,11931,4294964211,11904,183,247,4294967260
16519177,143,1887,4294952386,6485,577,230,262,4294966771,16732,147,16,4294967137,4294967182,11872,4294964299,11898,180,210,4294967275
16525177,4294967185,1917,4294952303,6555,515,225,224,4294966759,16787,134,4294967279,4294967142,4294967144,11874,4294964306,11940,181,233,4294967273
16531177,4294966992,1926,4294952361,6540,494,284,190,4294966752,16808,148,4294967196,4294967162,4294967145,11858,4294964261,11866,194,213,4294967280
16537177,21,1941,4294952348,6539,442,298,181,4294966771,16745,79,4294967131,4294967147,4294967140,11877,4294964301,11842,185,230,4294967262
16543177,4294967244,1972,4294952328,6550,387,302,184,4294966759,16737,166,4294967100,4294967123,4294967129,11846,4294964277,11806,189,234,4294967278
16549177,4294966944,2036,4294952346,6551,348,282,200,4294966809,16730,167,4294967070,4294967120,4294967133,11866,4294964271,11858,163,220,4294967263
16555177,4294967222,1983,4294952330,6478,270,294,196,4294966786,16783,96,4294967072,4294967127,4294967118,11891,4294964263,11841,151,233,4294967264
16561177,101,2055,4294952415,6508,238,271,186,4294966765,16821,184,4294967096,4294967129,4294967134,11809,4294964312,11831,135,257,4294967294
16567177,4294967048,2044,4294952384,6513,251,304,213,4294966817,16768,185,4294967139,4294967140,4294967132,11834,4294964255,11873,143,239,4294967269
16573177,4294967108,2057,4294952456,6532,317,329,213,4294966741,16811,102,4294967171,4294967153,4294967160,11862,4294964283,11859,140,258,4294967280
16579177,132,2030,4294952381,6567,359,343,221,4294966728,16779,130,4294967189,4294967160,4294967155,11835,4294964280,11822,137,249,4294967278
16585177,4294967145,2026,4294952371,6586,386,352,224,4294966728,16851,114,4294967220,4294967138,4294967183,11853,4294964250,11846,140,254,4294967283
16591177,4294966994,1976,4294952387,6648,401,348,232,4294966733,16858,115,4294967237,4294967132,4294967169,11800,4294964304,11847,125,264,2
16597177,99,1961,4294952284,6691,391,339,226,4294966772,16799,57,4294967223,4294967154,4294967186,11860,4294964257,11847,125,261,11
16603177,84,1965,4294952394,6644,366,311,221,4294966790,16772,72,4294967229,4294967149,4294967217,11849,4294964279,11847,109,284,16
16609177,4294967065,1894,4294952374,6758,359,269,206,4294966812,16808,92,4294967170,4294967154,4294967216,11846,4294964295,11853,128,265,10
16615177,50,1920,4294952402,6685,348,235,235,4294966744,16780,60,4294967156,4294967157,4294967185,11811,4294964305,11825,134,234,14
16621177,200,1874,4294952364,6779,394,259,258,4294966790,16750,86,4294967128,4294967121,4294967179,11908,4294964295,11819,116,262,23
16627177,4294967090,1911,4294952364,6707,433,246,247,4294966782,16790,73,4294967109,4294967134,4294967193,11881,4294964259,11872,119,241,5
16633177,4294967113,1921,4294952434,6590,451,240,238,4294966800,16771,201,4294967096,4294967117,4294967186,11906,4294964295,11842,128,246,28
16639177,87,1935,4294952422,6711,461,238,225,4294966788,16814,80,4294967127,4294967147,4294967192,11893,4294964273,11837,139,254,18
16645177,4294967096,1992,4294952478,6673,489,226,230,4294966744,16857,162,4294967180,4294967158,4294967214,11923,4294964284,11872,134,252,6
16651177,4294966947,1998,4294952423,6677,481,217,232,4294966706,16831,155,4294967229,4294967136,4294967240,11892,4294964273,11915,140,251,20
16657177,50,2051,4294952336,6710,474,190,222,4294966754,16837,154,4294967282,4294967119,4294967275,11843,4294964230,11839,157,251,46
16663177,4294967262,2031,4294952353,6639,463,179,229,4294966743,16844,118,37,4294967099,40,11854,4294964279,11855,155,267,34
16669177,4294966939,2078,4294952313,6620,463,147,231,4294966793,16839,92,61,4294967067,68,11888,4294964255,11848,151,250,29
16675177,4294967213,2028,4294952353,6636,473,149,256,4294966780,16829,148,56,4294967103,79,11886,4294964262,11840,143,232,35
16681177,107,1975,4294952334,6570,484,152,236,4294966757,16806,101,30,4294967125,71,11878,4294964233,11923,158,231,33
16687177,4294967110,1913,4294952355,6515,500,190,257,4294966794,16682,4294967283,4294967259,4294967165,48,11880,4294964253,11833,135,226,32
16693177,4294967134,1914,4294952388,6376,539,231,274,4294966735,16692,38,4294967192,4294967178,5,11856,4294964194,11952,140,234,35
16699177,161,1866,4294952432,6408,525,245,275,4294966758,16676,4294967293,4294967104,4294967197,4294967249,11873,4294964198,11841,130,220,25
16705177,4294967181,1843,4294952454,6387,554,264,275,4294966728,16658,44,4294967046,4294967177,4294967239,11848,4294964231,11902,118,244,6
16711177,4294966998,1881,4294952422,6399,558,304,258,4294966740,16688,35,4294967043,4294967167,4294967204,11826,4294964231,11950,109,252,5
16717177,36,1890,4294952461,6422,530,333,277,4294966834,16708,121,4294967055,4294967153,4294967211,11885,4294964193,11841,111,253,10
16723177,4294967294,1876,4294952375,6396,518,326,290,4294966804,16778,85,4294967087,4294967139,4294967176,11797,4294964197,11801,120,237,4294967295
16729177,4294966947,1930,4294952374,6483,505,360,315,4294966791,16844,1,4294967167,4294967144,4294967174,11860,4294964192,11843,96,247,1
16735177,4294967183,2028,4294952402,6466,494,354,359,4294966735,16788,136,4294967231,4294967154,4294967162,11912,4294964168,11812,103,255,6
16741177,102,2002,4294952408,6583,449,334,379,4294966768,16795,124,4294967290,4294967185,4294967213,11889,4294964177,11768,115,234,4294967279
16747177,4294967148,2007,4294952379,6616,450,345,344,4294966701,16782,191,18,4294967179,4294967214,11841,4294964276,11816,118,256,4294967265
16753177,4294967252,1957,4294952369,6639,450,360,324,4294966725,16810,84,21,4294967175,4294967234,11883,4294964241,11840,129,264,4294967256
16759177,142,1963,4294952356,6672,424,385,307,4294966717,16746,178,3,4294967172,4294967239,11904,4294964232,11905,138,249,4294967282
16765177,4294966860,1948,4294952351,6648,400,390,323,4294966733,16777,167,4294967259,4294967173,4294967233,11885,4294964259,11866,137,253,4294967274
16771177,4294966290,1907,4294952342,6661,370,376,316,4294966710,16780,81,4294967206,4294967188,4294967241,11868,4294964193,11921,152,262,4294967270
16777177,4294966256,1933,4294952302,6706,323,405,295,4294966756,16736,51,4294967133,4294967247,4294967216,11859,4294964299,11904,173,275,4294967275
16783177,4294966355,1911,4294952377,6663,277,361,266,4294966731,16763,182,4294967087,4294967227,4294967218,11887,4294964300,11863,179,259,4294967283
16789177,4294966950,1951,4294952323,6649,268,312,245,4294966771,16802,89,4294967052,4294967208,4294967213,11888,4294964287,11808,171,275,4294967272
16795177,1152,2015,4294952301,6687,256,292,253,4294966793,16715,167,4294967040,4294967194,4294967215,11871,4294964327,11852,172,271,4294967279
16801177,1717,2067,4294952303,6767,259,262,230,4294966839,16728,223,4294967086,4294967170,4294967215,11892,4294964299,11801,162,288,4294967291
16807177,1714,2180,4294952347,6679,298,220,224,4294966841,16735,120,4294967141,4294967186,4294967196,11893,4294964290,11810,174,265,4294967288
16813177,1031,2193,4294952324,6716,383,214,209,4294966758,16771,196,4294967189,4294967194,4294967202,11864,4294964325,11873,177,287,9
16819177,321,2208,4294952375,6739,439,193,211,4294966748,16755,210,4294967246,4294967206,4294967184,11850,4294964323,11847,151,281,34
16825177,4294966552,2112,4294952392,6675,526,191,244,4294966792,16751,204,4,4294967182,4294967212,11836,4294964322,11831,152,251,31
16831177,4294965887,2085,4294952366,6678,569,165,236,4294966740,16750,179,34,4294967193,4294967230,11807,4294964283,11878,157,249,41
16837177,4294966151,2009,4294952352,6608,608,149,263,4294966787,16773,148,44,4294967170,4294967229,11809,4294964268,11814,120,241,49
16843177,4294966277,1963,4294952363,6598,607,145,257,4294966832,16786,224,48,4294967149,4294967243,11829,4294964222,11858,138,289,42
16849177,4294966298,1947,4294952393,6710,595,118,252,4294966788,16829,243,4294967293,4294967157,4294967251,11836,4294964251,11855,143,282,33
16855177,4294966912,1893,4294952306,6579,565,85,235,4294966818,16819,141,4294967222,4294967169,4294967241,11819,4294964213,11856,122,273,42
16861177,52,1948,4294952374,6689,548,65,220,4294966777,16792,219,4294967173,4294967182,4294967220,11833,4294964188,11854,138,251,47
16867177,4294967156,2009,4294952382,6619,554,69,218,4294966767,16769,225,4294967147,4294967166,4294967200,11828,4294964255,11932,111,244,35
16873177,4294967275,2056,4294952357,6582,543,79,206,4294966805,16820,189,4294967117,4294967154,4294967223,11852,4294964245,11915,111,261,34
16879177,316,1998,4294952380,6569,554,102,234,4294966772,16745,183,4294967110,4294967137,4294967235,11813,4294964220,11896,109,238,42
16885177,22,1977,4294952433,6481,574,80,241,4294966795,16743,145,4294967068,4294967112,4294967235,11836,4294964173,11806,100,237,39
16891177,4294967113,1980,4294952473,6488,590,123,271,4294966732,16680,124,4294967091,4294967129,4294967235,11816,4294964193,11918,112,254,30
16897177,199,1896,4294952515,6464,628,164,290,4294966738,16658,69,4294967117,4294967150,4294967210,11847,4294964215,11930,101,228,8
16903177,125,1900,4294952508,6411,611,212,296,4294966698,16718,28,4294967155,4294967162,4294967198,11810,4294964216,11892,110,232,31
16909177,4294967080,1788,4294952493,6461,559,232,311,4294966783,16692,47,4294967180,4294967126,4294967175,11809,4294964186,11823,110,209,31
16915177,4294967274,1787,4294952431,6393,529,234,342,4294966813,16707,75,4294967225,4294967145,4294967148,11875,4294964205,11794,128,214,3
16921177,72,1837,4294952414,6379,493,264,342,4294966816,16739,94,4294967240,4294967136,4294967148,11903,4294964231,11832,124,235,13
16927177,4294967024,1920,4294952405,6527,469,255,349,4294966748,16724,166,4294967268,4294967201,4294967120,11896,4294964263,11834,132,226,4294967291
16933177,4294967135,1988,4294952325,6516,441,251,354,4294966724,16726,159,4294967284,4294967209,4294967133,11879,4294964207,11820,123,232,2
16939177,142,2116,4294952368,6609,431,268,340,4294966674,16817,74,4294967289,4294967174,4294967113,11897,4294964190,11880,133,231,6
16945177,4294967186,2122,4294952295,6666,448,277,338,4294966772,16864,156,4294967275,4294967158,4294967116,11887,4294964260,11904,127,236,4294967287
16951177,4294967001,2113,4294952382,6674,440,289,324,4294966768,16818,188,4294967277,4294967141,4294967136,11893,4294964245,11863,128,188,4294967270
16957177,52,2061,4294952330,6689,431,300,321,4294966812,16827,153,4294967237,4294967167,4294967155,11878,4294964202,11857,128,199,4294967278
16963177,25,2002,4294952355,6683,414,293,308,4294966747,16817,74,4294967208,4294967201,4294967163,11868,4294964220,11852,131,185,4294967287
16969177,4294967022,1906,4294952394,6599,393,315,315,4294966767,16785,115,4294967145,4294967213,4294967136,11950,4294964273,11881,134,200,3
16975177,18,1911,4294952412,6595,411,304,302,4294966808,16751,157,4294967105,4294967193,4294967153,11927,4294964233,11893,136,227,4294967246
16981177,72,1847,4294952398,6540,403,293,281,4294966768,16753,138,4294967063,4294967164,4294967140,11920,4294964293,11890,103,206,4294967276
16987177,4294966960,1824,4294952381,6605,426,293,287,4294966774,16804,92,4294967049,4294967139,4294967147,11864,4294964243,11880,132,204,1
16993177,4294967029,1840,4294952375,6660,419,298,280,4294966808,16754,155,4294967066,4294967127,4294967164,11887,4294964289,11896,133,219,4294967282
16999177,98,1879,4294952339,6738,406,264,251,4294966815,16752,186,4294967079,4294967149,4294967139,11874,4294964268,11788,145,203,12
17005177,4294967192,1973,4294952365,6780,399,231,252,4294966827,16750,101,4294967151,4294967154,4294967163,11877,4294964287,11830,141,240,24
17011177,4294967040,1978,4294952383,6791,383,186,198,4294966793,16754,128,4294967189,4294967163,4294967177,11816,4294964263,11862,184,224,28
17017177,136,2098,4294952332,6739,361,124,210,4294966757,16789,169,4294967241,4294967146,4294967214,11861,4294964295,11856,182,236,16
17023177,91,2117,4294952329,6678,358,94,206,4294966745,16789,205,4294967285,4294967124,4294967230,11861,4294964263,11819,199,250,46
17029177,4294967089,2122,4294952335,6684,370,118,212,4294966820,16791,190,4294967288,4294967109,4294967249,11877,4294964280,11771,197,239,34
17035177,84,2077,4294952316,6594,427,141,222,4294966832,16803,191,0,4294967117,4294967254,11857,4294964260,11871,219,237,36
17041177,237,2045,4294952342,6504,491,201,221,4294966786,16770,136,0,4294967107,4294967256,11824,4294964256,11810,237,228,48
17047177,4294967195,1904,4294952398,6353,533,198,222,4294966787,16846,147,4294967269,4294967094,4294967256,11838,4294964244,11879,242,238,22
17053177,4294967220,1910,4294952347,6466,516,204,233,4294966804,16898,101,4294967210,4294967104,4294967258,11849,4294964245,11845,247,212,40
17059177,197,1894,4294952367,6593,454,193,188,4294966774,16818,170,4294967175,4294967106,4294967273,11791,4294964235,11781,230,229,29
17065177,4294967247,1950,4294952281,6516,403,138,185,4294966779,16757,141,4294967157,4294967097,4294967254,11850,4294964211,11868,223,232,29
17071177,4294967086,1972,4294952340,6594,347,123,161,4294966726,16704,74,4294967104,4294967117,4294967242,11806,4294964251,11784,224,220,9
17077177,118,1990,4294952340,6511,337,100,180,4294966737,16782,135,4294967076,4294967099,4294967247,11792,4294964208,11931,203,201,8
17083177,2,2016,4294952363,6598,364,122,188,4294966783,16736,93,4294967047,4294967066,4294967238,11836,4294964177,11899,215,215,9
17089177,4294966970,2049,4294952389,6530,425,177,236,4294966798,16708,117,4294967058,4294967083,4294967231,11877,4294964181,11864,204,201,1
17095177,4294967234,2010,4294952416,6581,512,194,248,4294966751,16691,132,4294967065,4294967117,4294967219,11823,4294964232,11810,196,216,4294967272
17101177,34,1999,4294952451,6592,565,237,230,4294966744,16688,110,4294967144,4294967126,4294967202,11880,4294964208,11859,172,206,4294967288
17107177,4294966964,1932,4294952454,6539,591,203,249,4294966728,16712,145,4294967201,4294967128,4294967198,11856,4294964220,11950,169,191,4294967268
17113177,4294967022,1856,4294952416,6545,573,196,259,4294966759,16756,49,4294967210,4294967141,4294967201,11862,4294964200,11838,163,203,4294967278
17119177,50,1838,4294952412,6500,533,192,248,4294966757,16751,54,4294967241,4294967121,4294967172,11879,4294964218,11839,173,213,4294967278
17125177,4294967097,1875,4294952420,6504,495,194,256,4294966764,16745,126,4294967259,4294967165,4294967180,11904,4294964275,11854,173,213,4294967240
17131177,4294966943,1781,4294952341,6530,441,193,257,4294966703,16738,53,4294967262,4294967150,4294967158,11906,4294964230,11796,164,204,4294967248
17137177,25,1840,4294952370,6547,396,202,248,4294966738,16747,66,4294967242,4294967152,4294967138,11935,4294964307,11804,183,205,4294967259
17143177,4294967278,1895,4294952324,6542,391,251,248,4294966708,16732,121,4294967198,4294967181,4294967123,11950,4294964255,11868,170,216,4294967251
17149177,4294966976,1922,4294952343,6606,354,239,240,4294966706,16757,111,4294967156,4294967189,4294967105,11929,4294964299,11886,179,208,4294967249
17155177,4294967228,1966,4294952352,6615,362,280,226,4294966723,16715,59,4294967113,4294967206,4294967078,11936,4294964313,11908,160,186,4294967263
17161177,60,2009,4294952370,6572,366,262,243,4294966735,16743,140,4294967078,4294967210,4294967086,11935,4294964298,11864,154,176,4294967258
17167177,4294967013,1978,4294952383,6450,365,270,231,4294966714,16722,151,4294967047,4294967196,4294967080,11918,4294964259,11879,156,219,4294967269
17173177,4294967097,1962,4294952359,6459,388,299,235,4294966709,16765,235,4294967070,4294967171,4294967062,11921,4294964291,11786,122,227,4294967270
17179177,103,1962,4294952436,6477,395,306,249,4294966747,16774,228,4294967077,4294967153,4294967085,11958,4294964325,11825,103,241,4294967258
17185177,4294967156,1936,4294952433,6478,391,311,260,4294966719,16764,198,4294967055,4294967160,4294967089,11923,4294964330,11821,93,250,4294967279
17191177,4294967044,2006,4294952402,6499,434,287,272,4294966781,16837,173,4294967103,4294967167,4294967080,11870,4294964302,11864,83,251,4294967279
17197177,107,1957,4294952413,6601,442,295,290,4294966723,16824,105,4294967096,4294967170,4294967092,11859,4294964277,11823,63,278,0
17203177,15,1949,4294952410,6573,455,292,276,4294966802,16820,173,4294967129,4294967178,4294967131,11879,4294964277,11831,80,261,4294967285
17209177,4294966970,1983,4294952394,6666,484,296,278,4294966700,16826,146,4294967168,4294967179,4294967124,11919,4294964249,11804,55,261,10
17215177,4294967278,2041,4294952373,6753,483,256,286,4294966730,16774,193,4294967187,4294967144,4294967110,11884,4294964232,11847,77,294,1
17221177,138,2068,4294952329,6693,484,242,276,4294966785,16825,152,4294967186,4294967120,4294967151,11827,4294964218,11823,90,281,18
17227177,4294967079,2065,4294952343,6685,470,213,274,4294966820,16846,142,4294967179,4294967150,4294967159,11782,4294964253,11853,90,286,24
17233177,4294967150,2044,4294952305,6704,472,193,260,4294966798,16816,149,4294967189,4294967121,4294967174,11816,4294964278,11802,88,269,13
17239177,156,2064,4294952367,6614,475,215,256,4294966725,16851,88,4294967176,4294967143,4294967185,11864,4294964234,11835,115,266,11
17245177,4294967136,1965,4294952312,6627,483,222,234,4294966784,16871,104,4294967162,4294967148,4294967212,11844,4294964277,11922,111,248,25
17251177,4294966991,1858,4294952374,6584,493,242,247,4294966793,16877,119,4294967138,4294967131,4294967222,11835,4294964223,11875,122,275,21
17257177,65,1895,4294952387,6544,475,262,238,4294966806,16775,62,4294967116,4294967127,4294967236,11850,4294964272,11876,135,273,18
17263177,11,1913,4294952434,6639,461,237,232,4294966742,16761,104,4294967124,4294967147,4294967230,11811,4294964238,11882,153,283,22
17269177,4294967000,1948,4294952446,6571,433,245,212,4294966771,16773,161,4294967105,4294967152,4294967282,11857,4294964264,11887,147,242,41
17275177,4294967246,1977,4294952296,6673,360,194,170,4294966761,16781,90,4294967139,4294967149,0,11840,4294964227,11794,160,237,22
17281177,70,2006,4294952293,6634,311,169,169,4294966719,16763,129,4294967166,4294967131,6,11832,4294964204,11838,154,231,28
17287177,4294967055,2037,4294952283,6576,321,144,157,4294966733,16813,128,4294967226,4294967114,4294967287,11833,4294964231,11859,150,255,39
17293177,4294967138,2030,4294952249,6633,347,163,170,4294966738,16804,65,4294967275,4294967119,18,11813,4294964260,11897,152,247,22
17299177,151,2028,4294952300,6629,381,174,142,4294966762,16773,68,10,4294967120,23,11895,4294964251,11913,144,230,17
17305177,4294967152,2044,4294952304,6595,406,208,153,4294966726,16788,133,18,4294967139,34,11870,4294964193,11920,145,225,27
17311177,4294967003,1994,4294952349,6486,432,198,149,4294966770,16796,122,5,4294967118,29,11897,4294964265,11837,151,206,20
17317177,132,1934,4294952427,6434,421,200,141,4294966809,16774,63,4294967277,4294967127,31,11883,4294964200,11894,139,208,6
17323177,81,1955,4294952416,6534,394,194,145,4294966764,16785,121,4294967247,4294967145,22,11878,4294964246,11850,132,207,24
17329177,4294967073,1986,4294952442,6477,375,186,148,4294966770,16771,103,4294967184,4294967167,4294967290,11909,4294964247,11853,144,224,17
17335177,21,2001,4294952400,6507,387,186,161,4294966765,16714,105,4294967123,4294967174,4294967271,11935,4294964250,11780,148,240,10
17341177,101,1989,4294952370,6471,425,203,197,4294966692,16697,169,4294967100,4294967184,4294967248,11895,4294964235,11853,136,237,4
17347177,4294967019,1954,4294952411,6476,468,224,205,4294966703,16711,235,4294967067,4294967161,4294967240,11918,4294964247,11836,137,229,6
17353177,4294967146,1965,4294952372,6649,520,241,232,4294966711,16685,173,4294967039,4294967150,4294967256,11888,4294964244,11780,126,235,4294967293
17359177,168,2008,4294952367,6621,551,225,257,4294966764,16718,216,4294967086,4294967171,4294967227,11908,4294964235,11919,126,232,11
17365177,4294967163,2066,4294952415,6632,577,245,275,4294966690,16666,227,4294967109,4294967158,4294967201,11872,4294964232,11866,124,270,1
17371177,4294966980,1988,4294952408,6631,544,202,277,4294966743,16757,228,4294967147,4294967172,4294967184,11855,4294964282,11910,119,277,3
17377177,79,2026,4294952406,6557,526,185,255,4294966684,16710,187,4294967195,4294967159,4294967158,11882,4294964249,11853,127,280,0
17383177,4294967281,2042,4294952424,6532,522,192,258,4294966671,16744,166,4294967223,4294967174,4294967163,11882,4294964261,11896,139,274,17
17389177,4294966778,2014,4294952446,6563,548,188,241,4294966687,16703,199,4294967225,4294967172,4294967160,11902,4294964243,11889,150,284,11
17395177,4294966687,2002,4294952545,6540,569,198,261,4294966727,16706,162,4294967227,4294967160,4294967174,11930,4294964251,11853,136,275,4294967295
17401177,4294966417,1997,4294952469,6569,546,254,266,4294966751,16742,195,4294967205,4294967159,4294967172,11853,4294964195,11851,137,294,4294967295
