t_us,ecg_corr,ax0,ay0,az0,gx0,gy0,gz0,ax1,ay1,az1,gx1,gy1,gz1,ax2,ay2,az2,gx2,gy2,gz2
303873177,4294967255,9913,4294957010,8577,324,424,308,1046,17297,4294966465,4294966812,4294967193,733,2622,13541,9699,200,213,6
303879177,4294967150,9897,4294957004,8483,322,414,312,880,17221,4294966454,4294966559,4294967286,870,2582,13505,9686,173,230,5
303885177,4294967012,9864,4294956947,8531,357,330,333,740,17053,4294966494,4294966274,15,878,2581,13503,9672,172,214,4294967291
303891177,115,9957,4294957007,8473,380,308,319,711,16824,4294966718,4294966070,63,775,2598,13524,9708,157,216,20
303895177,248,9978,4294957028,8516,400,317,323,681,16573,4294966854,4294965930,105,677,2598,13467,9660,146,207,4294967295
303901177,4294967162,9955,4294957084,8462,427,302,324,684,16352,4294966785,4294965832,69,590,2646,13477,9713,144,232,3
303907177,4294967056,9942,4294957088,8524,442,222,334,929,16388,4294966541,4294965827,4294967252,492,2596,13430,9685,138,252,4294967285
303913177,69,9927,4294957043,8541,509,175,364,1344,16793,4294966409,4294966073,4294967050,294,2594,13440,9668,139,250,4294967276
303919177,4294967103,9904,4294957086,8520,523,145,353,1591,17347,4294966668,4294966516,4294966954,125,2645,13451,9652,140,273,4294967284
303925177,4294966713,9965,4294957032,8480,520,102,349,1686,17824,4294966725,4294966960,4294967033,101,2593,13451,9749,139,273,4294967288
303931177,4294966965,9956,4294957060,8525,518,46,362,1613,18147,4294966754,4294967257,4294967175,196,2595,13499,9686,143,272,4294967285
303937177,4294967135,10008,4294956991,8476,542,1,381,1226,18330,4294966852,29,4294967238,267,2552,13548,9696,155,284,0
303943177,4294967075,9976,4294957023,8621,533,2,400,796,18078,4294966983,4294967084,4294967246,423,2565,13520,9690,152,279,4294967274
303949177,130,9983,4294957029,8607,523,4294967249,385,480,17482,4294966920,4294966461,4294967256,571,2525,13534,9720,157,324,4294967276
303955177,316,9970,4294956995,8608,573,4294967264,391,501,16820,4294966888,4294965609,107,610,2584,13558,9729,157,327,4294967278
303961177,4294967221,9964,4294956968,8601,588,4294967208,381,643,16022,4294966941,4294964939,192,497,2563,13539,9653,177,315,4294967269
303967177,4294967099,9974,4294956986,8536,607,4294967204,373,745,15277,4294967115,4294964580,4294966983,336,2550,13615,9689,192,315,4294967277
303973177,54,9913,4294956954,8594,614,4294967158,368,1348,15110,86,4294964451,4294966240,274,2490,13612,9678,184,322,5
303979177,4294967154,9906,4294956994,8525,674,4294967144,376,1795,15182,596,4294964423,4294965906,299,2528,13637,9690,185,327,4294967287
303985177,4294967009,9916,4294957025,8587,715,4294967133,375,1817,15168,857,4294964389,4294965787,327,2493,13631,9698,185,331,4
303991177,113,9855,4294957088,8546,717,4294967108,382,1897,15189,822,4294964405,4294965821,229,2501,13644,9690,196,321,19
303997177,220,9842,4294957047,8509,725,4294967097,384,1713,15185,844,4294964520,4294965824,4294967225,2474,13708,9609,212,326,22
304003177,4294967202,9819,4294957073,8533,739,4294967065,365,1460,15108,860,4294964834,4294965658,4294966925,2456,13672,9600,198,305,9
304009177,101,9855,4294956976,8454,725,4294967054,412,1343,14979,880,4294965414,4294965266,4294966734,2485,13707,9689,171,293,15
304015177,194,9845,4294957019,8576,693,4294967033,417,1284,14971,995,4294966214,4294964858,4294966712,2530,13605,9593,164,285,25
304021177,4294967088,9837,4294956988,8576,642,4294967036,409,1257,15097,985,4294967023,4294964528,4294966783,2498,13608,9638,135,274,33
304027177,4294966988,9880,4294956960,8498,582,4294967027,451,1210,15605,849,450,4294964269,4294966740,2574,13620,9594,149,249,12
304033177,52,9889,4294956983,8445,544,4294967011,448,1115,16235,737,934,4294963939,4294966658,2551,13523,9654,154,263,26
304039177,4294967258,9883,4294956915,8498,524,4294967004,430,1083,16748,808,1204,4294963661,4294966704,2520,13555,9633,157,259,30
304045177,4294967078,9871,4294956886,8385,561,4294967002,433,971,16764,876,1272,4294963610,4294966837,2627,13582,9665,130,237,27
304051177,114,9852,4294956938,8453,601,4294967005,432,839,16601,1075,1114,4294962221,4294967017,2612,13536,9619,113,220,47
304057177,79,9830,4294956947,8482,665,4294966982,425,1289,16391,1197,1187,4294962388,4294966814,2584,13522,9657,124,217,52
304063177,4294966884,9811,4294956972,8438,677,4294966971,393,1247,16342,831,1320,4294962275,4294966435,2566,13510,9685,144,246,55
304069177,4294966986,9790,4294957024,8461,705,4294966944,391,1757,16644,341,1449,4294961712,4294966132,2543,13506,9617,127,266,60
304075177,4294967216,9851,4294957031,8451,654,4294966950,360,1956,17162,341,1442,4294961921,4294965870,2529,13479,9676,129,277,47
304081177,4294967035,9773,4294957088,8495,585,4294966937,324,1774,17822,57,1312,4294962331,4294965759,2549,13494,9692,143,269,47
304087177,4294967078,9840,4294957032,8461,523,4294966942,294,1489,18369,4294967010,1174,4294962603,4294965769,2521,13508,9685,166,277,16
304093177,109,9826,4294956997,8480,472,4294966950,283,1442,18798,4294966889,987,4294962613,4294965801,2515,13490,9686,164,273,30
304099177,4294967238,9837,4294957014,8578,472,4294966979,262,1166,18939,4294966858,807,4294962398,4294965895,2555,13572,9679,148,257,39
304105177,4294966988,9830,4294956991,8628,468,4294966987,242,1036,18953,4294966984,522,4294962092,4294966038,2547,13546,9670,147,281,32
304111177,51,9881,4294957009,8544,493,4294967038,218,1124,18923,4294967081,244,4294961882,4294966135,2577,13536,9734,174,285,42
304117177,190,9895,4294957027,8559,514,4294967090,210,1403,18942,4294967032,4294967216,4294961976,4294966021,2565,13588,9788,181,301,15
304123177,4294967194,9825,4294957014,8580,535,4294967138,209,1387,18918,4294966831,4294967071,4294962145,4294965778,2551,13602,9731,205,314,53
304129177,247,9811,4294957032,8593,590,4294967187,214,2366,19183,4294966845,4294967030,4294962242,4294965536,2535,13620,9739,214,317,31
304135177,505,9836,4294957039,8526,626,4294967181,205,5219,19674,239,4294967055,4294962034,4294965310,2601,13606,9729,221,327,44
304141177,29,9772,4294957082,8508,658,4294967195,196,5976,19880,1047,4294967183,4294961961,4294964760,2613,13611,9717,240,327,24
304147177,4294967068,9860,4294957174,8451,659,4294967124,216,2561,19430,862,4294967065,4294964391,4294964355,2582,13546,9746,242,344,22
304153177,192,9932,4294957124,8567,591,4294967110,228,906,18706,164,4294966357,4294965048,4294964892,2557,13577,9694,253,342,30
304159177,4294967258,9941,4294957127,8571,511,4294967058,244,773,17949,4294967107,4294965173,4294964487,4294965948,2623,13585,9747,270,336,27
304165177,4294966921,9962,4294957103,8556,458,4294967083,240,179,17590,4294966265,4294963910,4294964691,4294966108,2633,13534,9717,238,317,28
304171177,4294967187,10035,4294957138,8563,489,4294967111,239,4294967084,17320,4294965259,4294963066,4294963816,4294966165,2567,13539,9756,241,321,43
304177177,4294967222,10060,4294957164,8532,466,4294967188,226,79,16569,4294965182,4294962718,4294962686,4294966498,2545,13487,9711,242,325,23
304183177,4294966937,10054,4294957133,8546,504,4294967220,257,137,15423,4294965820,4294962745,4294962672,4294966689,2611,13478,9686,257,345,15
304189177,4294966992,10061,4294957111,8454,551,4294967246,270,187,14963,4294966571,4294963194,4294962923,4294966569,2511,13481,9658,246,365,25
304195177,4294967247,10111,4294957124,8485,537,5,284,273,14935,4294966839,4294963361,4294962929,4294966410,2577,13485,9654,257,362,14
304201177,4294966880,10100,4294957171,8466,582,30,294,563,14882,4294967038,4294963344,4294963582,4294966239,2620,13545,9744,274,347,4294967294
304207177,4294966914,10084,4294957131,8378,596,26,303,210,14956,4294966799,4294963547,4294963515,4294966192,2538,13559,9651,268,351,3
304213177,41,10097,4294957186,8476,588,4294967268,287,427,15349,4294966324,4294964358,4294962978,4294966262,2570,13534,9737,279,362,11
304219177,4294967223,10016,4294957164,8500,572,4294967225,290,714,15972,4294966219,4294965610,4294962742,4294966213,2523,13492,9719,273,369,14
304225177,4294967189,10054,4294957096,8498,557,4294967197,315,483,16604,4294966443,4294967127,4294962952,4294965979,2550,13565,9650,283,349,36
304231177,308,10013,4294957094,8414,574,4294967140,330,444,17488,4294966439,982,4294962954,4294965875,2521,13517,9627,272,364,12
304237177,259,10039,4294957112,8350,602,4294967078,330,339,18450,4294966198,1537,4294963194,4294965986,2529,13533,9600,278,375,16
304243177,4294967148,10004,4294957112,8331,648,4294967010,330,66,18733,4294966163,1670,4294963271,4294966180,2552,13562,9640,275,375,6
304249177,29,9973,4294957143,8419,737,4294966981,324,4294966222,18584,4294966123,1625,4294962529,4294966395,2539,13598,9645,249,397,4294967293
304255177,331,9951,4294957111,8362,768,4294966932,299,4294966998,18273,4294965989,1387,4294961819,4294966662,2547,13541,9650,237,390,4294967290
304261177,4294967270,9946,4294957124,8306,777,4294966920,304,4294966440,17962,4294966302,917,4294961409,4294966787,2591,13565,9602,218,443,4
304267177,4294967174,9970,4294957078,8418,771,4294966915,290,4294966807,17402,4294966566,257,4294961248,4294967000,2623,13511,9730,224,447,2
304273177,98,9982,4294957049,8437,766,4294966926,299,4294966787,16893,4294966881,4294966665,4294961482,4294967202,2640,13563,9680,223,428,0
304279177,4294966985,9945,4294957057,8550,720,4294967015,272,4294966488,16011,4294967043,4294965688,4294961699,226,2596,13579,9683,230,468,4294967283
304285177,4294966287,9896,4294957094,8343,685,4294967025,265,4294966229,15426,125,4294964976,4294961213,641,2517,13694,9649,265,472,4294967273
304291177,4294966271,9906,4294957059,8527,620,4294967084,274,4294966495,14833,406,4294964244,4294960805,985,2431,13690,9610,274,484,4294967279
304297177,4294966298,9919,4294957051,8595,596,4294967144,249,4294966866,14374,295,4294963625,4294961413,1166,2453,13635,9636,279,491,17
304303177,4294966771,9926,4294957043,8552,591,4294967226,257,4294966830,14194,119,4294963250,4294962203,1183,2451,13616,9672,251,466,27
304309177,901,9975,4294957052,8569,599,10,247,4294967276,14498,4294966942,4294963667,4294962515,934,2472,13627,9598,270,457,21
304315177,1732,9942,4294957061,8563,622,15,252,0,15160,4294967044,4294964524,4294962956,468,2449,13681,9571,298,411,17
304321177,1608,9935,4294957092,8543,654,97,258,436,16017,284,4294965798,4294962720,4294967254,2491,13688,9626,295,397,4294967288
304327177,618,9957,4294957078,8566,624,99,279,376,16919,409,32,4294962672,4294966740,2493,13696,9566,287,392,15
304331177,26,9933,4294957103,8550,615,106,269,514,17528,396,1021,4294962584,4294966506,2485,13726,9513,289,395,3
304335177,4294966584,9956,4294957073,8531,608,101,296,424,18205,440,1990,4294962722,4294966333,2426,13724,9610,292,412,3
304341177,4294965312,10033,4294957047,8533,555,115,308,356,19078,672,2982,4294962818,4294966182,2479,13771,9556,282,378,4294967286
304347177,4294964944,10046,4294957026,8518,527,75,326,149,19293,793,3676,4294962631,4294966076,2550,13684,9593,248,362,8
304353177,4294965416,10100,4294957065,8559,486,106,317,43,19109,837,4320,4294962543,4294965979,2562,13702,9597,234,367,18
304359177,4294965640,10143,4294957113,8524,473,118,332,4294966964,18761,450,4520,4294962600,4294965905,2537,13677,9632,218,345,10
304365177,4294965887,10098,4294957102,8520,449,121,313,4294966744,18189,339,4242,4294962439,4294965966,2512,13677,9637,214,323,16
304371177,4294966683,10125,4294957090,8497,444,134,327,4294966853,17777,468,3356,4294962662,4294966066,2480,13653,9670,199,315,6
304377177,4294967122,10150,4294957038,8494,481,96,318,4294966699,17022,556,1751,4294962964,4294966248,2537,13626,9631,176,305,13
304383177,4294967056,10130,4294957037,8478,530,92,303,4294966470,16137,838,296,4294963128,4294966526,2560,13650,9654,135,297,9
304389177,141,10183,4294957091,8474,576,106,289,4294966743,15730,948,4294966219,4294963450,4294966730,2510,13568,9601,173,312,15
304395177,598,10130,4294957155,8485,594,139,265,4294966971,15436,792,4294965330,4294964127,4294966600,2476,13514,9658,204,249,10
304401177,495,10095,4294957172,8520,596,114,284,4294966869,15586,725,4294964594,4294964566,4294966478,2534,13521,9638,177,240,0
304407177,584,10045,4294957153,8545,589,98,264,4294966960,15623,734,4294964087,4294964664,4294966505,2538,13504,9655,193,223,7
304413177,827,10056,4294957163,8533,553,98,249,4294967106,15889,783,4294964055,4294964827,4294966530,2521,13524,9659,165,176,4
304419177,526,10040,4294957146,8531,511,57,265,4294967174,16244,801,4294964172,4294965150,4294966444,2506,13563,9616,186,178,4294967283
304425177,115,10060,4294957137,8599,484,71,237,4294967226,16485,1051,4294964780,4294965313,4294966345,2502,13566,9634,172,168,5
304431177,177,10025,4294957098,8544,463,44,252,4294967133,16652,1635,4294965806,4294965180,4294966245,2515,13528,9552,173,188,4294967284
304437177,4294967240,9985,4294957100,8442,454,69,248,4294967199,16584,1986,4294967057,4294965389,4294966054,2581,13560,9648,151,196,4294967292
304443177,4294966830,10019,4294957021,8626,455,110,251,4294966996,16455,1934,831,4294965915,4294965706,2586,13548,9589,155,211,4294967293
304449177,4294966972,10013,4294957061,8577,505,137,234,4294966927,16480,1437,1829,4294965771,4294965360,2523,13559,9554,165,180,4294967285
304455177,4294966893,10018,4294957084,8552,516,183,214,153,17016,1183,2924,4294965733,4294964902,2536,13616,9646,171,202,4294967267
304461177,4294966338,9985,4294957034,8528,528,201,236,63,17875,609,4118,4294965629,4294964322,2524,13601,9604,155,167,4294967279
304467177,4294966336,10059,4294957085,8545,505,222,236,61,18774,218,5321,4294965283,4294963935,2547,13640,9616,142,202,4294967294
304473177,4294966708,10040,4294957114,8571,457,262,242,4294967217,19413,4294967175,5785,4294964827,4294963860,2517,13656,9589,133,162,4294967260
304479177,4294966379,10039,4294957090,8487,401,303,228,4294967009,19655,4294967143,5326,4294964940,4294964035,2518,13650,9573,121,181,4294967278
304485177,4294966152,9989,4294957067,8515,335,311,249,4294966690,19326,4294967140,4067,4294965159,4294964450,2518,13649,9633,132,168,4294967291
304491177,4294966524,10042,4294957070,8409,289,314,233,4294966713,18511,4294967201,2236,4294965097,4294965052,2470,13638,9618,149,170,4294967273
304497177,4294966699,10030,4294957040,8524,254,325,243,4294966532,17257,522,334,4294965822,4294965492,2514,13633,9678,143,178,4294967266
304503177,4294966424,10042,4294956970,8414,271,339,232,4294966456,16058,1168,4294965885,4294966153,4294965882,2507,13682,9679,172,165,4294967287
304509177,4294966792,10085,4294956969,8364,281,323,231,4294966622,15245,1423,4294964469,4294966620,4294966063,2497,13648,9652,186,206,4294967281
304515177,82,10044,4294957015,8407,300,311,209,4294966567,14730,1329,4294963428,4294966917,4294966031,2462,13664,9665,171,213,4294967286
304521177,379,10078,4294956959,8467,314,304,211,4294966881,14899,1233,4294963011,4294966730,4294965897,2475,13647,9593,147,213,6
304527177,948,10027,4294957048,8443,334,282,219,4294966935,15059,1128,4294963104,4294966680,4294965638,2497,13602,9627,162,197,18
304533177,1715,10080,4294957030,8406,317,263,227,4294967207,15413,895,4294963664,4294966302,4294965381,2480,13622,9657,169,197,12
304539177,1728,10023,4294957030,8413,334,249,238,150,16089,579,4294964563,4294966404,4294965055,2496,13700,9724,166,228,12
304545177,1737,10083,4294957058,8337,336,223,228,4294967205,16567,333,4294965669,4294966674,4294964759,2459,13581,9630,163,214,14
304551177,1714,10055,4294957060,8432,324,261,250,4294966834,16743,4294967249,4294967124,4294966335,4294964672,2499,13591,9611,135,227,41
304557177,1263,10018,4294957040,8357,325,243,283,4294966448,16982,4294967017,1359,4294966040,4294964656,2493,13549,9564,79,195,29
304563177,218,10047,4294957060,8316,299,275,273,4294966285,17220,4294966742,2590,4294965774,4294964657,2547,13556,9687,99,186,44
304569177,4294966866,9955,4294957062,8392,302,283,291,4294966157,17289,4294966709,3384,4294965858,4294964651,2561,13528,9673,103,188,37
304575177,4294966269,10090,4294957034,8434,290,297,286,4294966220,17365,4294966850,3695,4294966052,4294964693,2558,13508,9674,103,197,41
304581177,4294965376,10043,4294957038,8320,252,286,305,4294966190,17306,4294966964,3568,4294966179,4294964824,2544,13485,9590,87,212,30
304587177,4294965198,10008,4294957051,8382,285,286,321,4294966338,17073,4294967173,2896,4294966176,4294965131,2528,13501,9643,104,229,34
304593177,4294965865,10026,4294957060,8364,284,251,316,4294966725,16811,4294967286,1911,4294966146,4294965474,2540,13445,9623,96,237,60
304599177,4294966376,10024,4294957037,8339,341,226,289,4294967006,16480,397,1018,4294966258,4294965747,2525,13479,9671,123,218,14
304605177,4294966792,10066,4294957037,8309,370,199,312,4294967035,16096,630,233,4294966307,4294965936,2593,13516,9724,123,202,27
304611177,283,10029,4294956997,8364,402,155,306,4294967079,15575,520,4294966790,4294966341,4294966048,2578,13498,9626,128,204,28
304617177,859,10047,4294957035,8304,426,94,297,4294966940,15182,209,4294965760,4294966310,4294966130,2562,13453,9658,140,196,33
304623177,900,10042,4294957031,8301,422,65,322,4294966809,15147,4294967212,4294965242,4294966170,4294966201,2554,13510,9678,173,241,30
304629177,1170,10027,4294957008,8282,452,4294967280,324,4294966703,15240,4294966957,4294965144,4294966030,4294966329,2617,13518,9688,184,213,2
304635177,1395,9999,4294957085,8163,472,4294967221,313,4294966630,15642,4294966974,4294965577,4294965909,4294966272,2609,13499,9676,207,258,23
304641177,1040,10066,4294957047,8262,505,4294967201,314,4294966652,16187,4294967078,4294966118,4294965914,4294966120,2585,13552,9674,208,275,22
304647177,826,10023,4294957059,8338,535,4294967193,286,4294966643,16506,221,4294966578,4294965871,4294966118,2609,13549,9666,228,330,12
304653177,979,10054,4294957012,8299,559,4294967172,300,4294966646,16658,489,4294967137,4294965940,4294966132,2563,13566,9725,208,334,2
304659177,583,10023,4294957037,8327,578,4294967177,312,4294966602,16519,474,411,4294966106,4294966177,2539,13553,9692,192,355,4294967294
304665177,203,10044,4294957042,8273,592,4294967189,300,4294966526,16298,456,933,4294966298,4294966287,2595,13562,9605,198,346,4294967288
304671177,420,10015,4294957040,8360,579,4294967199,316,4294966442,15988,203,1493,4294966456,4294966468,2561,13617,9626,185,337,4294967266
304677177,186,10029,4294957045,8345,594,4294967213,304,4294966388,15710,302,1929,4294966631,4294966678,2505,13618,9637,217,331,4294967277
304683177,4294966801,10011,4294957095,8444,586,4294967240,284,4294966303,15451,311,2214,4294966872,4294966793,2539,13598,9577,199,321,4294967295
304689177,4294966682,9945,4294957052,8433,588,4294967266,266,4294966257,15313,241,2119,4294967147,4294967038,2581,13561,9652,204,329,6
304695177,4294966690,9981,4294957137,8449,550,4294967279,245,4294966145,15236,4294967153,1568,4294967286,105,2624,13622,9565,196,332,4294967265
304701177,4294966364,9931,4294957109,8364,533,4294967294,241,4294966141,15290,4294966996,922,57,412,2539,13609,9563,234,324,4294967275
304707177,4294966582,9906,4294957160,8400,510,23,240,4294966071,15400,4294966875,356,75,599,2523,13652,9535,251,281,4294967295
304713177,4294967223,9893,4294957081,8485,481,18,211,4294965935,15344,4294966847,4294967223,206,715,2533,13604,9671,261,261,1
304719177,4294967236,9897,4294957082,8526,460,18,217,4294965707,15162,4294966935,4294966847,536,907,2542,13631,9585,215,273,4294967291
304725177,4294967196,9878,4294957128,8408,471,58,218,4294965442,15006,4294966865,4294966469,826,1194,2508,13609,9674,191,291,4294967284
304731177,355,9908,4294957139,8415,474,71,197,4294965093,14765,4294966696,4294965972,901,1682,2543,13596,9585,152,284,4294967285
304737177,455,9911,4294957114,8519,491,99,184,4294965016,14320,4294966510,4294965382,835,2246,2527,13625,9635,164,267,4294967267
304743177,126,9919,4294957119,8470,487,151,167,4294965104,13969,4294966585,4294964977,789,2777,2512,13596,9633,139,269,4294967290
304749177,189,9943,4294957086,8459,476,196,167,4294965327,13635,4294966575,4294964730,939,3177,2541,13608,9621,140,322,4294967273
304755177,243,9962,4294957091,8455,445,248,168,4294965592,13431,4294966541,4294964604,1220,3500,2501,13588,9630,135,330,4294967276
304761177,4294967036,9974,4294957130,8514,396,334,166,4294965863,13560,4294966688,4294964610,1480,3803,2519,13625,9613,131,341,4294967268
304767177,4294966867,9977,4294957095,8517,357,393,144,4294966180,13837,4294966855,4294964668,1624,4170,2503,13577,9660,138,321,4294967274
304773177,4294967136,9976,4294957076,8538,296,426,150,4294966307,14134,4294967053,4294964660,1736,4531,2521,13574,9692,151,318,4294967269
304779177,4294966969,10032,4294957056,8506,262,467,123,4294966526,14363,4294967212,4294964543,1766,4957,2521,13592,9642,157,309,4294967293
304785177,4294966757,10004,4294957038,8511,212,535,147,4294966651,14489,1,4294964410,1792,5306,2550,13612,9615,180,306,4294967286
304791177,4294967025,9994,4294957043,8643,202,585,120,4294966831,14499,188,4294964243,1816,5660,2430,13614,9624,194,310,16
304797177,4294967001,10052,4294957018,8487,203,630,121,4294966822,14595,205,4294964100,1823,6038,2535,13693,9600,198,296,4294967290
304803177,4294966706,10064,4294957028,8544,193,668,114,4294966853,14748,176,4294963824,1831,6535,2488,13649,9534,193,285,25
304809177,4294967072,10060,4294957031,8510,173,688,124,4294966806,14821,203,4294963484,2103,7025,2492,13626,9686,180,300,1
304815177,151,10050,4294956979,8443,198,715,115,4294966754,14927,166,4294962830,2266,7558,2494,13598,9623,210,278,7
304821177,4294967246,10044,4294956990,8428,195,710,128,4294966784,14972,110,4294962170,2431,8033,2517,13612,9605,194,305,9
304827177,4294967263,10075,4294957012,8405,225,748,146,4294967026,15160,83,4294961607,2497,8414,2431,13633,9509,162,290,4
304833177,328,10028,4294957018,8466,205,776,186,4294967238,15328,104,4294961246,2366,8744,2488,13628,9527,131,285,10
304839177,216,10048,4294957005,8503,200,797,192,498,15526,438,4294960977,2164,9048,2479,13654,9561,116,271,12
304843177,4294967149,10071,4294957081,8463,184,782,199,727,15684,752,4294960852,2201,9236,2499,13660,9603,119,272,10
304849177,4294967041,10046,4294957011,8431,173,773,217,1041,15954,1057,4294960670,2003,9507,2493,13626,9589,88,251,9
304855177,4294967065,10088,4294957035,8544,175,763,252,1590,16214,1338,4294960713,2103,9533,2495,13681,9518,63,253,4
304861177,4294966631,10125,4294956976,8465,122,791,261,2226,16313,1694,4294960719,1942,9338,2473,13603,9563,54,232,20
304867177,4294966574,10095,4294956988,8458,113,781,265,2810,16224,2110,4294960811,1573,9083,2488,13656,9613,39,216,14
304873177,4294966994,10122,4294956891,8480,142,771,278,3558,16258,2392,4294960970,1296,8983,2452,13676,9654,38,204,22
304879177,4294966881,10183,4294956971,8402,159,780,284,3451,16369,2537,4294961077,1784,8830,2468,13670,9626,27,196,16
304885177,4294966730,10230,4294956977,8332,194,760,285,3441,16617,2276,4294961158,1758,8762,2458,13682,9568,16,194,25
304891177,4294967104,10171,4294956937,8371,225,724,311,3022,16722,2127,4294961075,2422,8652,2454,13641,9658,31,166,35
304897177,4294967129,10183,4294956935,8336,245,666,275,2099,16925,1516,4294960982,2598,8680,2502,13603,9609,16,133,25
304903177,4294966719,10108,4294956954,8294,309,623,290,1229,17604,532,4294961015,2479,8798,2482,13580,9693,14,144,40
304909177,4294966855,10091,4294957071,8258,355,546,275,1506,18295,345,4294961197,1527,8443,2514,13618,9711,4294967293,175,26
304915177,4294967166,9990,4294957071,8205,375,467,305,2940,18131,2080,4294961569,615,7819,2518,13554,9611,4294967269,139,15
304921177,4294967030,9989,4294957061,8284,419,375,308,3586,16447,3952,4294961487,621,8627,2538,13540,9660,4294967276,161,26
304927177,4294967226,10028,4294957080,8262,426,385,311,3186,14712,3971,4294960615,1619,10114,2525,13558,9702,4294967270,105,10
304933177,502,10027,4294957115,8277,432,352,302,2787,14906,2716,4294959842,2447,10812,2592,13570,9658,4294967237,162,11
304939177,583,9986,4294957021,8424,427,330,295,2370,15780,1986,4294959368,2921,10748,2527,13507,9632,4294967218,167,4294967294
304945177,566,10006,4294956986,8328,358,326,337,2224,15971,1912,4294959047,2472,10767,2571,13509,9682,4294967230,164,4294967284
304951177,782,9973,4294956948,8374,374,342,293,2226,15768,2497,4294958598,2139,11116,2608,13524,9692,4294967248,163,4294967288
304957177,457,9987,4294956965,8447,393,338,270,2459,15417,3186,4294957974,2173,11516,2587,13522,9640,4294967273,170,4294967289
304963177,4294967071,9988,4294956960,8410,419,355,264,2882,15105,3603,4294957487,2477,11692,2578,13554,9603,4294967294,188,4294967286
304969177,4294967091,9961,4294957008,8439,474,350,244,3425,15185,3548,4294957293,3056,11690,2528,13584,9667,29,191,11
304975177,21,9972,4294957098,8388,541,321,246,3471,15508,3301,4294957455,3667,11598,2557,13584,9687,55,187,4294967295
304981177,4294967169,9913,4294957119,8418,573,302,235,3663,16337,3300,4294957808,3730,11260,2546,13539,9694,86,214,4294967278
304987177,40,9879,4294957168,8517,579,261,228,4900,16671,3840,4294958276,3465,10724,2512,13583,9740,76,218,25
304991177,380,9909,4294957147,8545,544,236,222,5702,16404,4790,4294958530,3312,10423,2475,13508,9698,82,188,0
304995177,493,9898,4294957118,8531,498,218,221,5991,15549,5719,4294958547,3403,10465,2466,13535,9672,77,169,4294967292
305001177,188,9908,4294957093,8570,438,256,199,5563,14090,6279,4294958419,4002,11224,2478,13547,9749,108,158,0
305005177,88,9913,4294957029,8471,370,295,201,4939,13956,5987,4294958307,4377,11814,2548,13558,9727,75,161,4294967289
305011177,329,9929,4294957034,8518,288,310,187,4145,15139,5036,4294958287,4335,12090,2525,13523,9699,46,198,4294967288
305017177,4294967275,10000,4294956956,8491,225,357,195,3857,16547,4233,4294958977,3274,11651,2561,13488,9700,76,222,6
305023177,4294966185,10005,4294956914,8562,158,383,185,4248,17777,3940,4294959540,2434,11253,2552,13493,9624,66,210,4294967277
305029177,4294965747,10034,4294956914,8536,178,437,174,4609,18229,4514,4294959318,1815,11099,2504,13446,9718,50,203,4294967280
305035177,4294966110,9975,4294956908,8447,190,506,183,5411,18026,5603,4294959180,1661,10990,2575,13421,9747,65,222,4294967294
305041177,4294966814,9963,4294956892,8488,217,542,187,5828,17300,6390,4294959300,1904,10685,2598,13467,9751,115,201,4294967277
305047177,710,9919,4294956959,8375,266,580,201,6253,16582,6779,4294959815,2017,10231,2575,13475,9731,144,200,4294967280
305053177,1592,9973,4294956958,8417,294,563,209,6539,16346,6664,4294960477,1865,9732,2626,13507,9742,123,207,4294967281
305059177,1243,9983,4294956981,8380,309,526,219,6951,16342,6834,4294961020,1696,9351,2503,13601,9701,133,215,4294967262
305065177,289,9975,4294956966,8340,315,487,234,7251,16414,6741,4294961181,1697,8971,2516,13513,9683,124,198,4294967269
305071177,4294967097,10018,4294957021,8370,283,420,238,7285,16480,6605,4294961079,2223,8706,2497,13549,9720,189,234,4294967266
305077177,4294966543,10017,4294957072,8348,279,371,252,6844,16547,6117,4294960634,2446,8530,2543,13546,9678,191,260,4294967263
305083177,4294966090,10086,4294956990,8307,257,341,265,6518,16481,5526,4294960341,2568,8321,2524,13550,9701,172,272,4294967261
305089177,4294966373,10022,4294957043,8313,307,301,257,6048,16608,5055,4294960322,2802,7960,2483,13504,9712,159,286,4294967273
305095177,4294966740,10030,4294957031,8306,336,265,218,5798,16643,5063,4294960440,2881,7504,2512,13524,9630,149,279,4294967255
305101177,4294966544,10063,4294957059,8309,375,256,234,5450,16711,5259,4294960741,2908,7015,2549,13525,9677,155,289,4294967275
305107177,4294966535,10058,4294957023,8182,410,232,230,5518,16697,5541,4294960810,2761,6630,2581,13575,9650,139,281,4294967252
305113177,4294966914,10040,4294957045,8314,454,204,254,5545,16598,6024,4294961075,2878,6219,2599,13535,9728,151,300,4294967275
305119177,4294966852,10030,4294957085,8340,482,195,250,5551,16476,6236,4294961232,2994,5895,2552,13509,9792,136,288,4294967271
305125177,4294966731,9955,4294957118,8333,507,216,230,5495,16568,6365,4294961777,3340,5437,2547,13546,9764,167,302,4294967283
305131177,4294967201,9942,4294957148,8299,549,188,221,5202,16429,6372,4294962038,3207,5071,2566,13533,9801,195,321,4294967256
305137177,67,9849,4294957155,8300,560,195,211,5101,16636,6011,4294962730,2990,4795,2516,13508,9742,215,323,4294967289
305143177,68,9848,4294957163,8345,535,184,238,5342,16446,5506,4294963376,3004,4540,2561,13558,9799,228,328,4294967278
305149177,521,9780,4294957136,8405,497,176,232,5106,16638,5170,4294964238,3125,4145,2480,13607,9790,256,342,4294967263
305155177,874,9795,4294957103,8397,459,153,245,5420,16455,5016,4294964722,2798,3890,2489,13624,9742,281,354,4294967259
305161177,712,9811,4294957064,8382,431,151,258,5626,16348,5172,4294965604,2659,3495,2461,13585,9738,272,336,4294967290
305167177,957,9833,4294957037,8496,391,169,230,6098,16135,5214,4294965986,2260,3172,2492,13620,9705,298,336,4294967290
305173177,1342,9814,4294956972,8529,354,180,212,6676,15773,5422,4294966937,2482,2781,2485,13654,9710,284,336,4294967287
305179177,880,9852,4294956953,8566,316,208,189,6571,15531,5275,4294967049,2441,2628,2501,13633,9672,261,345,4294967291
305185177,214,9817,4294956882,8535,316,238,181,6750,15135,5393,396,2654,2443,2498,13637,9642,307,321,8
305189177,147,9880,4294956919,8498,299,260,181,6438,15317,5288,431,2805,2373,2540,13624,9631,304,313,4294967281
305193177,123,9963,4294956908,8516,279,297,195,6348,15246,5244,167,2656,2431,2539,13702,9574,286,302,7
305197177,4294967207,9952,4294956879,8539,294,299,210,6203,15162,5219,14,2620,2415,2546,13699,9615,261,295,4294967286
305203177,4294966888,10032,4294956905,8412,281,354,211,5815,15073,5201,4294966870,2391,2417,2552,13697,9640,243,295,4294967294
305209177,4294967201,9942,4294956912,8565,282,430,184,5700,14808,4893,4294966415,2100,2436,2493,13703,9590,248,278,4294967287
305215177,384,9950,4294956931,8556,282,471,164,5712,14366,4889,4294966421,2150,2311,2454,13694,9672,253,249,5
305219177,284,9949,4294956885,8537,291,514,175,5905,14475,5109,4294966376,2385,2245,2501,13696,9653,224,230,7
305223177,190,9977,4294956843,8518,253,514,193,5823,14388,5180,4294966086,2640,2220,2500,13693,9639,200,216,2
305227177,422,10017,4294956847,8557,229,516,189,5917,14198,5340,4294965905,2650,2173,2469,13710,9663,206,216,9
305231177,748,10050,4294956856,8556,207,539,182,6110,14126,5550,4294965890,2772,2134,2464,13677,9601,194,222,4294967290
305237177,628,10101,4294956828,8493,161,584,198,6148,14252,5767,4294965677,2945,2034,2473,13636,9578,204,230,11
305241177,264,10045,4294956853,8517,130,584,181,6256,14208,5847,4294965611,2961,2001,2408,13682,9574,173,201,4294967274
305247177,78,10067,4294956866,8532,110,626,201,6478,14101,5913,4294965583,2803,1958,2476,13643,9494,172,142,4
305251177,179,10130,4294956857,8522,108,620,168,6685,14059,6136,4294965667,2863,1885,2463,13620,9590,176,156,4294967293
305257177,18,10108,4294956893,8490,100,618,198,6790,14167,6125,4294965868,2959,1751,2466,13642,9563,127,117,4294967287
305263177,4294966900,10062,4294956883,8426,127,613,214,6865,14047,6169,4294965874,2650,1658,2531,13550,9556,136,94,26
305269177,4294966960,10059,4294956874,8373,173,610,200,6975,13902,6216,4294966126,2477,1523,2566,13645,9583,118,113,0
305275177,4294966967,10142,4294956927,8472,224,563,233,6858,13780,6115,4294966240,2180,1410,2547,13650,9567,84,130,4294967279
305281177,4294966533,10081,4294957033,8477,283,581,240,6746,13653,6107,4294966481,1792,1283,2478,13656,9614,82,134,7
305287177,4294966540,10010,4294957043,8500,334,578,248,7131,13606,6140,4294966858,1771,1134,2498,13620,9649,64,130,14
305293177,4294966867,10018,4294957057,8444,334,591,278,6922,13670,6215,4294967007,2085,999,2464,13600,9653,57,152,4294967287
305299177,4294966648,9999,4294957057,8432,372,563,296,7003,13448,6286,4294966946,2008,1019,2496,13625,9682,61,167,4294967294
305305177,4294966458,9972,4294957081,8308,361,546,337,6922,13408,6681,18,2287,937,2505,13643,9656,81,167,4294967286
305311177,4294966866,9939,4294957063,8337,374,512,358,6848,13459,7051,4294967063,1788,1006,2543,13638,9654,92,172,4294967294
305317177,4294967002,9970,4294957020,8290,374,473,365,7665,13193,7515,97,1972,1044,2577,13604,9669,125,203,4294967267
305323177,4294966843,9959,4294957024,8372,369,411,381,7128,13564,7590,4294967207,2142,1114,2476,13662,9684,131,211,4294967280
305329177,4294967098,9945,4294957038,8330,348,381,394,7145,13479,7383,4294967061,2018,1252,2472,13704,9641,133,203,5
305335177,4294967206,9976,4294956958,8379,338,361,413,7230,13592,7351,4294966534,2042,1418,2547,13655,9723,149,192,3
305341177,4294966814,9980,4294956974,8418,364,320,405,6716,13640,7251,4294965728,2067,1551,2535,13676,9731,147,242,4294967285
305347177,4294966852,10006,4294956938,8369,413,314,434,6427,13206,7052,4294965113,1891,1685,2479,13619,9698,145,236,4294967273
305353177,19,9944,4294957027,8353,462,275,445,6345,12870,6991,4294964592,1677,1761,2471,13608,9681,157,219,4294967288
305359177,36,10014,4294957058,8297,515,248,430,6304,12629,6858,4294964508,2057,1787,2502,13587,9710,155,212,7
305363177,16,9957,4294956986,8391,568,223,439,6346,12556,6715,4294964387,2194,1837,2492,13576,9701,105,201,7
305367177,245,9984,4294957025,8313,570,190,452,6104,12399,6690,4294964235,2438,1875,2519,13527,9689,94,191,2
305371177,580,10031,4294956991,8299,603,175,449,6079,12430,6591,4294964139,2414,1970,2531,13476,9621,40,183,4294967292
305377177,557,10014,4294957002,8299,644,166,450,6206,12354,6463,4294963905,2772,2083,2557,13454,9666,16,141,4294967285
305383177,128,9931,4294956962,8344,613,133,459,5775,11980,6473,4294963716,3100,2106,2586,13383,9736,9,126,4294967289
305389177,132,9931,4294956933,8430,581,106,472,6075,12116,6496,4294963948,2876,2171,2583,13344,9658,16,94,9
305393177,117,9981,4294956923,8453,542,83,473,6080,12298,6592,4294964174,3056,2175,2590,13330,9700,4,111,4294967287
305399177,4294966910,9995,4294956867,8483,515,60,482,6296,12618,6403,4294964611,2932,2240,2621,13363,9705,4294967289,102,4294967285
305405177,4294966530,9974,4294956857,8423,462,62,455,6412,13400,6450,4294964904,2739,2209,2607,13293,9638,4294967277,114,4294967272
305411177,4294966793,9931,4294956846,8374,461,80,464,6429,13562,6375,4294965117,2249,2209,2617,13269,9618,4294967262,139,4294967260
305417177,4294966799,9961,4294956812,8433,473,68,454,6331,13824,6207,4294965639,1861,2088,2647,13315,9775,4294967294,162,4294967272
305423177,4294966664,9988,4294956809,8476,512,60,440,6529,14020,6226,4294966403,1347,2015,2630,13277,9743,29,180,4294967247
305429177,4294967184,9894,4294956826,8375,532,86,428,6962,14241,6143,4294967107,1094,1916,2635,13386,9680,65,204,4294967233
305435177,392,9832,4294956795,8370,558,73,412,7107,14357,6076,426,1370,1847,2584,13405,9741,81,226,4294967237
305439177,369,9835,4294956843,8392,598,68,385,7036,14683,5975,643,1478,1911,2589,13427,9713,104,256,4294967250
305443177,286,9833,4294956894,8361,604,67,379,6764,14805,5888,560,1455,1945,2557,13422,9750,95,258,4294967233
305447177,375,9834,4294956861,8324,617,56,351,6721,14755,5791,407,1126,1995,2581,13465,9707,121,281,4294967239
305451177,466,9817,4294956930,8369,621,37,348,6996,14664,5748,399,990,2045,2545,13468,9761,135,298,4294967246
305455177,284,9847,4294956929,8345,595,22,323,6872,14571,5715,145,1426,2067,2537,13480,9786,145,330,4294967250
305459177,4294967122,9800,4294956913,8342,571,15,315,6701,14496,5733,85,1208,2061,2506,13512,9783,187,346,4294967240
305465177,4294966494,9795,4294956979,8323,537,4294967293,304,7026,14367,5848,4294967241,1046,2087,2451,13595,9749,195,365,4294967232
305471177,4294966561,9763,4294956943,8260,491,4294967287,257,7356,14414,6017,4294967239,1447,1957,2434,13597,9727,212,416,4294967244
305477177,4294966489,9794,4294956915,8397,468,4294967290,235,7729,14278,5939,4294967166,1466,1904,2489,13612,9766,253,410,4294967254
305483177,4294966372,9804,4294956914,8243,427,4294967284,219,7677,14254,5990,4294966982,2193,1749,2468,13643,9734,251,416,4294967263
305489177,4294967063,9762,4294956867,8267,420,4294967286,211,7338,14081,5888,4294966495,1946,1671,2468,13681,9758,265,425,4294967258
305495177,402,9778,4294956802,8288,444,4294967293,184,7743,13884,5971,4294966505,1997,1480,2477,13682,9765,277,416,4294967274
305501177,414,9850,4294956821,8230,448,7,183,7769,13719,6244,4294966789,2238,1137,2458,13629,9750,304,409,4294967289
305507177,551,9885,4294956820,8266,429,6,177,7709,13688,6508,4294967142,2170,958,2445,13715,9758,310,395,1
305511177,719,9909,4294956819,8253,431,15,175,8081,13428,6618,258,2393,895,2491,13723,9706,295,387,11
305515177,701,9862,4294956771,8308,441,20,173,8221,13233,7470,754,4270,659,2462,13746,9652,293,385,28
305519177,357,9846,4294956791,8246,445,26,179,7628,12970,6406,985,4746,595,2449,13767,9733,280,356,34
305523177,18,9861,4294956775,8284,463,24,174,7695,12799,6631,1073,4123,722,2491,13708,9681,273,354,45
305527177,44,9880,4294956776,8259,479,6,166,7492,12769,6856,955,3423,832,2454,13713,9713,260,324,36
305531177,230,9864,4294956799,8257,488,13,168,7338,12830,7232,570,2733,953,2438,13718,9587,269,303,39
305535177,284,9884,4294956787,8317,490,9,161,7211,12525,7457,326,1868,1101,2493,13723,9617,248,298,51
305539177,76,9918,4294956807,8349,530,4294967292,158,7433,12129,7663,436,1408,1223,2465,13698,9611,234,291,67
305543177,4294967170,9881,4294956890,8395,507,9,162,7187,12169,7774,614,1177,1289,2487,13728,9648,202,281,72
305547177,4294967233,9872,4294956852,8281,509,9,164,7109,12069,7675,615,794,1341,2480,13703,9613,189,280,50
305551177,107,9850,4294956845,8273,517,10,154,7207,11939,7598,799,698,1308,2472,13733,9632,176,261,46
305555177,82,9862,4294956833,8418,528,4294967274,158,7348,12100,7443,1081,712,1257,2513,13706,9556,170,268,68
305559177,4294967046,9866,4294956901,8376,554,4294967294,166,7415,12301,7254,1340,755,1111,2458,13660,9551,148,246,62
305565177,4294966831,9910,4294956858,8430,536,15,175,7221,12607,7165,1769,606,829,2408,13701,9601,128,210,65
305569177,4294967107,9893,4294956905,8378,530,13,179,7233,13019,6998,2043,401,577,2463,13630,9648,87,218,65
305573177,101,9893,4294956867,8421,527,28,191,7110,13352,6849,2274,133,337,2497,13636,9494,88,220,72
305577177,100,9932,4294956909,8415,522,55,180,7026,13648,6762,2412,4294967091,156,2476,13648,9546,79,238,45
305581177,4294967211,9894,4294956927,8411,518,78,202,7092,13805,6741,2519,4294966785,35,2542,13652,9484,51,212,40
305585177,4294967190,9941,4294956975,8398,524,84,205,7142,13870,6705,2565,4294966567,4294967285,2508,13652,9486,37,174,54
305591177,237,9959,4294956983,8539,525,118,182,6844,13980,6771,2388,4294966138,4294967292,2494,13584,9532,20,145,27
305597177,191,9951,4294956973,8542,525,152,155,6906,13698,6801,1988,4294965312,176,2528,13541,9550,4294967291,139,68
305603177,4294967116,9987,4294956967,8469,524,186,203,6914,13548,6812,1466,4294964991,260,2556,13527,9589,4294967260,129,43
305609177,4294967295,10000,4294957027,8543,548,210,176,7317,13390,6779,1497,4294965149,306,2581,13555,9532,4294967267,129,31
305615177,121,10026,4294957080,8524,554,242,193,7580,13342,6805,1246,4294965577,386,2556,13547,9582,4294967286,127,8
305621177,4294966963,9972,4294957075,8592,559,285,186,7502,13058,6911,1155,4294966345,459,2536,13579,9603,9,131,15
305627177,4294966861,10026,4294957072,8596,558,321,179,7523,12985,6939,1095,4294966683,499,2573,13538,9527,2,153,4294967278
305633177,4294967014,9980,4294957052,8698,552,332,188,7455,13074,6955,880,4294966998,454,2564,13543,9686,9,178,7
305637178,4294966865,10058,4294957093,8606,529,327,187,7328,13348,6847,668,4294967009,387,2533,13560,9651,8,179,6
305641178,4294966624,10095,4294957081,8695,509,343,177,7242,13409,6877,473,4294966900,324,2588,13583,9674,43,173,4294967277
305647177,4294966744,10076,4294957135,8710,493,343,180,7175,13515,6805,232,4294966641,275,2544,13616,9762,69,205,4294967289
305653177,4294967107,10078,4294957102,8654,486,343,173,7234,13593,6807,105,4294966494,191,2574,13576,9686,86,210,4294967267
305659177,4294966935,10051,4294957140,8605,482,380,182,7332,13669,6663,14,4294966443,111,2478,13583,9702,103,208,4294967270
305665177,4294966787,10037,4294957117,8580,498,405,165,7247,13648,6440,107,4294966479,4294967285,2516,13642,9767,123,202,4294967295
305671177,4294967151,10031,4294957106,8515,477,401,175,7173,13633,6390,317,4294966493,4294967193,2483,13629,9750,146,194,4294967284
305677177,4294967149,10087,4294957116,8529,502,390,175,7145,13661,6312,550,4294966459,4294967110,2544,13639,9778,154,232,4294967293
305683177,4294966852,10103,4294957153,8516,491,392,169,7060,13658,6198,704,4294966320,4294967073,2481,13706,9791,152,226,4294967286
305689177,4294967047,10125,4294957107,8464,507,383,175,7060,13719,6193,828,4294966185,4294967059,2520,13665,9752,196,251,0
305695177,4294967164,10074,4294957067,8466,524,372,201,7103,13752,6278,861,4294966134,4294967075,2471,13655,9817,193,255,4
305701177,4294966797,10091,4294957060,8456,500,328,228,7153,13720,6123,869,4294966167,4294967110,2514,13607,9787,187,238,17
305707177,4294966823,10132,4294957028,8426,509,309,268,7193,13725,6072,908,4294966233,4294967098,2520,13619,9715,164,219,4294967295
305713177,4294967185,10105,4294957019,8401,491,277,288,7141,13770,6104,939,4294966360,4294967081,2460,13593,9812,139,180,12
305719177,4294967062,10081,4294956976,8214,505,211,301,7187,13798,6051,951,4294966440,4294967099,2521,13590,9721,131,174,4294967288
305725177,4294966935,10058,4294956939,8306,500,175,336,7122,13903,6066,892,4294966503,4294967139,2522,13551,9714,151,140,11
305731177,16,10114,4294956933,8270,548,100,341,7094,13907,6032,763,4294966575,4294967203,2519,13576,9709,109,106,37
305737177,45,10123,4294956891,8149,553,25,326,7030,13983,5990,612,4294966653,4294967213,2477,13570,9663,97,78,44
305741177,4294967164,10079,4294956816,8198,594,4294967279,337,6978,13982,6040,524,4294966684,4294967199,2534,13562,9667,82,77,35
305747177,4294967181,10063,4294956815,8150,584,4294967185,344,6946,14040,5948,399,4294966730,4294967149,2563,13532,9657,81,75,47
305753177,4294967288,10039,4294956841,8167,638,4294967110,360,6947,14074,5986,342,4294966792,4294967128,2550,13496,9716,68,54,4
305759177,4294966726,10033,4294956810,8146,714,4294967045,355,6906,14069,6134,298,4294966828,4294967112,2509,13488,9688,57,69,16
305765177,4294966216,10062,4294956864,8121,734,4294966974,356,6843,14023,6155,265,4294966903,4294967137,2504,13506,9691,52,68,16
305771177,4294966774,10007,4294956872,8182,771,4294966908,340,6800,13952,6281,193,4294966928,4294967149,2574,13514,9660,34,80,5
305777177,384,9983,4294956854,8120,804,4294966829,324,6708,13907,6303,137,4294966930,4294967159,2568,13515,9641,55,83,4294967294
305783177,1243,9959,4294956886,8108,830,4294966782,325,6674,13816,6441,66,4294966931,4294967164,2538,13479,9613,19,88,7
305789177,1729,9888,4294956925,8226,854,4294966740,318,6660,13800,6439,72,4294966916,4294967150,2553,13494,9697,20,124,4294967286
305795177,1714,10011,4294956909,8207,848,4294966687,305,6702,13778,6432,58,4294966857,4294967164,2583,13446,9706,37,138,4294967280
305801177,711,9955,4294956921,8268,866,4294966667,288,6665,13726,6425,86,4294966885,4294967165,2527,13520,9696,62,159,4294967278
305807177,4294967008,9984,4294956921,8310,878,4294966645,272,6692,13721,6505,107,4294966896,4294967169,2563,13524,9745,50,187,4294967284
305813177,4294966508,9985,4294956973,8364,883,4294966617,253,6709,13712,6448,117,4294966910,4294967149,2538,13475,9637,98,193,4294967259
305819177,4294965942,9961,4294956968,8374,909,4294966638,251,6728,13720,6554,173,4294966959,4294967076,2570,13552,9720,125,209,4294967275
305825177,4294965852,9997,4294956974,8413,912,4294966623,211,6734,13674,6611,213,4294966950,4294967083,2565,13529,9633,126,211,4294967280
305831177,4294966470,10010,4294957002,8480,900,4294966644,210,6782,13626,6664,222,4294966950,4294967113,2567,13572,9717,146,223,4294967269
305837177,4294966772,9978,4294957028,8517,888,4294966667,210,6747,13529,6730,188,4294966958,4294967164,2572,13634,9630,172,234,4294967263
305843177,4294966779,9960,4294956998,8462,884,4294966665,195,6815,13427,6691,139,4294966999,4294967195,2546,13627,9729,168,227,4294967292
305849177,4294967229,10029,4294957018,8442,901,4294966711,205,6871,13368,6695,108,4294967014,4294967209,2567,13605,9675,172,209,4294967282
305855177,209,9991,4294957044,8489,899,4294966787,197,6953,13405,6647,89,4294967026,4294967233,2529,13592,9643,170,219,4
305861177,4294967273,9949,4294957103,8475,872,4294966831,174,6984,13402,6685,69,4294967009,4294967227,2513,13603,9634,172,223,4294967284
305867177,93,9991,4294957086,8556,916,4294966883,203,6975,13398,6600,27,4294967016,4294967194,2560,13611,9650,154,218,4294967291
305873177,414,10026,4294957039,8486,955,4294966915,175,7014,13441,6652,4294967284,4294967047,4294967177,2485,13618,9654,151,225,4294967279
305879177,189,10037,4294957077,8507,956,4294966974,203,7059,13367,6655,4294967282,4294967085,4294967160,2531,13593,9660,140,196,4294967281
305885177,4294967254,10061,4294957086,8520,886,4294967067,185,7054,13413,6635,33,4294967078,4294967149,2501,13558,9661,130,172,4294967284
305891177,232,10040,4294957049,8553,806,4294967121,210,7042,13335,6619,20,4294967094,4294967142,2533,13570,9695,91,164,12
305897177,162,10078,4294957100,8468,679,4294967150,194,6992,13341,6569,47,4294967099,4294967161,2521,13523,9682,84,168,10
305903177,4294967146,10069,4294957075,8445,589,4294967183,220,6993,13363,6569,37,4294967077,4294967150,2507,13519,9661,91,133,0
305909177,76,10013,4294957048,8388,529,4294967197,239,7008,13347,6533,64,4294967001,4294967090,2522,13570,9644,92,101,4294967294
305915177,199,10043,4294957018,8291,535,4294967218,219,7036,13380,6491,128,4294966973,4294967108,2528,13568,9739,88,88,4294967294
305921177,4294967087,10029,4294957059,8321,615,4294967231,234,7050,13386,6541,186,4294966951,4294967113,2549,13546,9663,78,82,4294967295
305927177,4294967051,10084,4294957063,8300,694,4294967239,238,7122,13304,6577,249,4294966986,4294967150,2550,13537,9630,46,98,0
305933177,4294967262,10077,4294957086,8283,773,4294967256,260,7079,13261,6558,227,4294966950,4294967200,2555,13573,9666,52,90,4294967291
305939177,4294966952,10103,4294957093,8277,824,4294967240,258,7045,13293,6496,206,4294966950,4294967294,2572,13555,9700,67,63,4294967292
305945177,4294966722,10084,4294957166,8268,827,4294967227,292,7028,13292,6484,202,4294966924,81,2589,13535,9630,59,75,4294967283
305951177,4294967047,10078,4294957121,8355,830,4294967212,281,7077,13418,6439,222,4294966924,165,2539,13558,9695,59,91,4294967278
305957177,4294967047,10122,4294957202,8307,768,4294967186,302,7017,13444,6318,282,4294966869,185,2580,13580,9719,60,91,4294967270
305963177,4294966839,10084,4294957169,8307,714,4294967170,316,7047,13597,6344,330,4294966853,150,2581,13580,9771,60,123,4294967261
305969177,4294967140,10079,4294957147,8250,669,4294967161,333,7057,13699,6169,408,4294966846,137,2616,13456,9734,61,102,4294967287
305975177,38,10073,4294957091,8313,644,4294967149,316,7100,13695,6206,488,4294966859,91,2610,13445,9757,64,138,4294967281
305981177,4294967066,10002,4294957056,8360,627,4294967150,294,7084,13733,6185,547,4294966908,20,2581,13438,9685,102,161,4294967274
305987177,4294967141,9990,4294957054,8261,612,4294967159,326,6981,13782,6158,592,4294966933,4294967269,2611,13481,9752,132,189,4294967274
305993177,152,10022,4294956977,8325,623,4294967164,299,6921,13738,6191,642,4294966986,4294967267,2583,13458,9807,162,208,4294967269
305999177,4294967290,9996,4294956920,8386,643,4294967189,287,6824,13665,6233,633,4294967021,4294967258,2615,13442,9715,158,230,4294967279
306005177,4294967208,10042,4294956957,8356,644,4294967214,278,6776,13651,6349,586,4294967052,4294967278,2551,13443,9745,176,241,4294967281
306011177,321,9991,4294956911,8444,658,4294967271,268,6743,13761,6284,603,4294967004,4294967233,2590,13473,9833,199,266,4294967283
306017177,359,10002,4294957006,8349,665,10,235,6693,13741,6428,637,4294967011,4294967185,2587,13467,9753,212,273,4294967283
306023177,116,10020,4294957028,8491,671,58,234,6689,13639,6507,637,4294967073,4294967224,2542,13468,9820,231,276,7
306027177,290,10009,4294957026,8514,675,82,233,6709,13632,6584,562,4294967104,4294967288,2533,13554,9730,241,316,1
306031178,514,9961,4294957049,8470,648,142,217,6730,13563,6593,525,4294967159,34,2489,13558,9726,230,330,4294967290
306037177,412,9894,4294957084,8518,618,216,213,6674,13591,6517,481,4294967177,87,2552,13511,9805,250,343,6
306041177,110,9931,4294957120,8503,611,270,208,6630,13547,6553,462,4294967172,79,2513,13536,9704,248,347,19
306045177,15,9915,4294957136,8388,569,300,202,6692,13609,6527,461,4294967182,70,2565,13501,9719,225,358,1
306049177,141,9907,4294957175,8473,546,335,223,6679,13694,6585,453,4294967164,73,2543,13531,9696,219,359,3
306053177,226,9865,4294957183,8441,490,382,216,6637,13696,6479,472,4294967167,85,2503,13466,9713,200,365,1
306057177,30,9892,4294957061,8392,457,418,217,6689,13785,6437,499,4294967150,66,2521,13524,9738,189,364,4294967288
306061177,4294967012,9903,4294957100,8387,379,450,220,6734,13874,6474,513,4294967172,35,2564,13522,9666,178,341,0
306065178,4294966908,9915,4294957157,8398,301,491,233,6742,13896,6474,498,4294967201,31,2552,13510,9653,179,312,10
306069178,4294967066,9955,4294957074,8485,252,520,226,6775,13854,6451,527,4294967210,20,2570,13541,9744,175,315,7
306073178,4294967182,9927,4294957074,8425,222,547,233,6709,13798,6522,531,4294967233,14,2542,13518,9690,147,321,4294967294
306079177,4294966880,9993,4294957017,8437,164,596,229,6714,13833,6451,528,4294967266,4294967288,2537,13541,9670,132,318,4294967291
306085177,4294966695,10021,4294957010,8442,145,640,208,6751,13787,6422,584,4294967255,4294967236,2548,13484,9726,129,306,4294967270
306091177,4294966998,10049,4294957006,8380,131,687,184,6743,13857,6426,643,4294967271,4294967235,2545,13480,9714,117,285,4294967290
306097177,4294966924,10053,4294956949,8420,150,730,185,6734,13815,6411,666,4294967277,4294967269,2570,13545,9638,127,279,17
306103177,4294966641,10000,4294956969,8353,186,776,160,6748,13776,6414,632,7,13,2531,13560,9726,128,288,17
306107177,4294966812,10028,4294956985,8391,206,783,172,6697,13812,6377,548,15,49,2525,13538,9547,131,262,21
306111177,4294967090,10094,4294957004,8326,195,772,150,6733,13785,6385,495,33,80,2527,13538,9606,140,271,0
306115177,4294967186,10025,4294957028,8300,224,788,135,6725,13728,6361,456,41,64,2546,13596,9651,139,279,6
306119177,4294967051,10032,4294957014,8328,234,788,143,6762,13655,6289,416,49,72,2488,13541,9670,147,260,15
306123177,4294966942,10017,4294957030,8331,236,779,121,6771,13679,6307,382,42,59,2534,13542,9583,137,263,4294967290
306129177,4294967283,10047,4294957065,8293,240,756,131,6804,13714,6348,376,48,56,2536,13555,9629,121,266,13
306133177,201,10068,4294957015,8278,218,732,119,6854,13735,6358,393,43,66,2475,13619,9712,131,269,21
306137177,118,10071,4294957058,8364,195,700,96,6853,13694,6310,379,72,80,2502,13605,9676,128,251,14
306141177,4294967201,10107,4294957062,8310,185,714,98,6917,13687,6310,342,111,95,2535,13603,9615,148,267,15
306145177,4294967160,10135,4294957034,8293,186,676,89,6878,13604,6353,287,105,115,2505,13620,9668,148,279,23
306149177,63,10112,4294957034,8360,193,660,110,6888,13586,6297,243,131,97,2495,13641,9685,125,282,15
306153177,169,10134,4294957023,8341,194,643,104,6889,13536,6347,211,95,67,2539,13593,9597,132,297,5
306157177,4294967283,10133,4294956998,8397,188,639,103,6906,13557,6260,229,97,58,2485,13596,9652,122,286,2
306161177,4294966976,10155,4294957012,8332,199,623,75,6935,13560,6199,225,78,38,2481,13615,9638,127,264,21
306165177,4294966877,10147,4294956991,8301,210,592,79,6958,13654,6182,230,91,20,2541,13566,9670,115,262,7
306169177,4294967068,10118,4294956980,8266,243,597,53,6976,13579,6185,285,83,10,2521,13602,9647,94,230,24
306173177,4294967177,10141,4294956990,8328,272,601,55,7028,13620,6202,325,124,24,2517,13567,9697,120,235,17
306177177,4294967039,10180,4294957023,8295,272,588,59,6979,13655,6218,316,125,31,2524,13605,9640,123,214,21
306181177,4294966811,10142,4294956986,8295,297,577,59,6966,13628,6181,328,118,57,2558,13545,9700,121,225,29
306185177,4294966814,10100,4294956985,8267,299,557,50,6977,13643,6187,306,91,30,2557,13573,9667,123,213,20
306189177,4294967103,10126,4294956971,8335,293,560,95,6978,13723,6129,290,79,4294967289,2549,13546,9695,123,207,18
306193177,65,10093,4294957031,8279,285,545,99,6958,13689,6214,295,52,4294967259,2545,13493,9773,113,201,33
306197177,49,10043,4294957050,8241,293,523,94,6960,13746,6192,297,50,4294967247,2574,13519,9676,97,201,8
306201177,4294967194,10043,4294957030,8253,312,508,101,6934,13813,6186,342,19,4294967206,2614,13501,9775,97,178,21
306205177,4294967224,9998,4294957047,8243,308,477,132,7017,13764,6145,365,4294967285,4294967232,2559,13466,9709,120,183,17
306211177,278,9991,4294957077,8250,300,442,157,7012,13860,6150,394,4294967277,4294967222,2586,13487,9801,113,185,29
306217177,164,10020,4294957142,8217,311,430,174,7026,13788,6176,398,30,4294967248,2549,13415,9771,99,183,31
306221177,4294967199,10023,4294957134,8185,313,404,205,7042,13795,6151,369,46,4294967272,2538,13387,9701,87,175,26
306225177,4294967149,10001,4294957087,8356,330,372,206,7046,13752,6136,344,25,4294967266,2573,13399,9663,75,174,12
306229177,48,10031,4294957134,8177,325,327,220,7016,13731,6074,331,38,4294967282,2558,13394,9622,55,167,11
306233177,192,10031,4294957119,8266,351,277,244,6990,13784,6088,301,62,3,2551,13297,9565,21,168,19
306237177,59,10030,4294957132,8233,341,245,264,6977,13700,6163,281,45,1,2561,13263,9556,4294967281,171,24
306241177,4294967121,9998,4294957097,8299,320,229,277,6953,13761,6180,268,41,4294967275,2583,13272,9587,4294967255,174,38
306247177,4294967223,10032,4294957054,8136,315,184,297,7043,13800,6213,255,27,18,2539,13213,9662,4294967218,144,23
306251178,190,9972,4294957028,8217,315,186,323,6999,13778,6192,261,24,13,2601,13226,9600,4294967193,131,5
306255177,253,9947,4294957069,8201,321,131,340,7025,13788,6250,239,49,34,2604,13185,9612,4294967186,122,21
306259177,69,9935,4294957087,8181,295,92,378,6989,13750,6164,250,60,40,2634,13200,9603,4294967148,147,2
306263177,4294967207,9905,4294957106,8189,299,73,377,6959,13772,6161,243,57,63,2546,13228,9616,4294967123,143,4294967284
306269177,160,9846,4294957063,8122,253,28,411,6888,13801,6195,263,47,48,2554,13306,9536,4294967099,111,12
306273177,314,9809,4294957001,8157,219,12,443,6884,13776,6207,255,27,40,2513,13346,9611,4294967096,112,13
306277177,172,9746,4294956964,8120,194,0,443,6938,13793,6151,297,4294967293,1,2540,13327,9536,4294967079,107,28
306281177,4294967177,9707,4294956986,8144,161,4294967256,398,6912,13825,6103,306,4294967272,24,2545,13374,9645,4294967053,100,22
306287177,4294967156,9687,4294956990,8153,153,4294967242,339,6902,13803,6078,313,4294967256,9,2556,13435,9684,4294967056,87,36
306293177,98,9819,4294957006,8220,142,4294967204,273,6898,13806,6014,309,4294967274,78,2521,13489,9642,4294967054,102,38
306299177,4294967135,9832,4294957041,8304,135,4294967201,248,6864,13788,5964,286,4294967260,109,2454,13620,9660,4294967120,132,41
306305177,4294966989,9901,4294956995,8436,98,4294967200,214,6840,13793,5971,292,4294967249,136,2403,13680,9621,4294967144,114,74
306311177,53,9941,4294957057,8356,72,4294967201,188,6788,13752,5952,280,4294967229,134,2347,13847,9691,4294967183,136,64
306317177,6,9968,4294957053,8400,49,4294967220,123,6847,13707,6014,289,4294967203,77,2290,13868,9798,4294967169,130,115
306323177,4294967000,9944,4294957017,8299,22,4294967207,74,6866,13674,5933,371,4294967160,69,2287,13854,9842,4294967157,97,123
306329177,4294967225,10028,4294957030,8386,4294967288,4294967185,8,6918,13629,6011,467,4294967128,16,2389,13907,9815,4294967169,103,139
306335177,2,10082,4294956968,8452,4294967229,4294967168,4294967257,6874,13673,6007,540,4294967100,4294967258,2431,14012,9867,4294967178,93,150
306341177,4294966944,10148,4294957014,8477,4294967218,4294967187,4294967207,6934,13695,5987,612,4294967036,4294967201,2396,14014,9916,4294967241,67,151
306347177,4294967064,10177,4294956970,8515,4294967175,4294967231,4294967167,6970,13713,6039,645,4294966983,4294967144,2476,14005,9887,4294967286,63,139
306353177,119,10269,4294956968,8634,4294967115,4294967249,4294967178,7036,13771,5883,717,4294966917,4294967090,2491,13981,9826,10,28,159
306359177,4294967222,10262,4294956925,8745,4294967043,9,4294967152,7147,13888,5981,760,4294966857,4294967043,2605,13984,9809,5,23,161
306365177,4294967046,10452,4294956952,8784,4294966988,56,4294967131,7192,13949,6007,807,4294966817,4294967003,2626,13935,9807,26,4294967282,160
306371177,4294967274,10512,4294956924,8864,4294966919,117,4294967152,7255,14046,6063,867,4294966798,4294966995,2670,13922,9800,59,4294967247,175
306377177,4294967064,10594,4294956851,8900,4294966871,195,4294967148,7351,14104,6088,893,4294966794,4294966992,2720,13847,9829,61,4294967207,200
306383177,4294966625,10666,4294956912,8917,4294966838,283,4294967156,7419,14080,6011,889,4294966781,4294967004,2740,13776,9761,49,4294967169,200
306389177,4294966797,10682,4294956908,8774,4294966836,390,4294967195,7467,14093,6149,867,4294966779,4294967014,2713,13740,9823,51,4294967151,182
306395177,4294966912,10723,4294956997,8881,4294966870,458,4294967204,7465,14023,6150,803,4294966813,4294967039,2742,13648,9801,71,4294967122,178
306401177,4294966698,10782,4294957046,8976,4294966884,507,4294967254,7504,13873,6056,680,4294966851,4294967095,2707,13618,9809,67,4294967118,163
306407177,4294966923,10752,4294957089,8818,4294966929,576,4294967273,7533,13836,5984,522,4294966884,4294967118,2658,13573,9788,44,4294967119,160
306413177,68,10717,4294957174,8711,4294966968,580,58,7546,13723,5987,337,4294966899,4294967138,2652,13499,9781,71,4294967159,132
306419177,4294967264,10700,4294957275,8578,4294966984,648,126,7530,13551,5960,141,4294966917,4294967147,2618,13540,9876,91,4294967162,89
306425177,4294967197,10698,4294957357,8522,4294967007,613,206,7538,13425,5774,4294967292,4294966935,4294967128,2613,13537,9918,127,4294967189,72
306431177,221,10688,4294957375,8369,4294967158,612,323,7505,13350,5719,4294967149,4294966943,4294967126,2701,13486,9969,146,4294967181,66
306437177,69,10656,4294957538,8306,8,563,433,7506,13243,5531,4294967051,4294966921,4294967081,2753,13499,10007,156,4294967171,39
306443177,4294967000,10618,4294957608,8266,47,482,554,7455,13155,5502,4294966961,4294966898,4294967044,2826,13664,10027,220,4294967175,4294967291
306449177,4294967206,10715,4294957596,8146,131,457,644,7442,13120,5538,4294966838,4294966840,4294967005,2853,13780,9967,345,4294967233,4294967263
306455177,48,10781,4294957489,8145,191,381,734,7430,13082,5415,4294966786,4294966767,4294966966,2827,13891,10041,455,4294967281,4294967229
306461177,4294966966,10952,4294957470,8250,229,255,783,7420,13137,5533,4294966728,4294966682,4294966926,2887,13979,10165,574,17,4294967213
306467177,4294966800,11075,4294957322,8279,330,143,809,7500,13148,5614,4294966712,4294966580,4294966890,3000,13986,10035,686,72,4294967227
306473177,4294966651,11250,4294957294,8404,545,87,780,7478,13180,5618,4294966707,4294966496,4294966887,2968,13935,10117,736,153,4294967186
306479177,4294966043,11337,4294957254,8487,862,12,722,7553,13288,5850,4294966734,4294966344,4294966868,2976,13735,9988,844,252,4294967164
306485177,4294966143,11440,4294957224,8576,1232,4294967234,640,7626,13424,5821,4294966774,4294966237,4294966862,2884,13822,9936,934,312,4294967137
306491177,145,11538,4294957253,8594,1558,4294967165,587,7704,13596,5931,4294966836,4294966092,4294966825,2801,13733,9932,995,349,4294967102
306497177,1206,11503,4294957253,8529,1923,4294967077,551,7746,13833,6000,4294966958,4294965998,4294966844,2796,13578,9804,1027,406,4294967074
306503177,1522,11562,4294957320,8432,2245,4294966952,534,7878,13996,6106,4294967017,4294965912,4294966818,2796,13498,9697,1006,464,4294967084
306509177,1546,11474,4294957414,8490,2512,4294966817,571,7877,14109,6263,4294967006,4294965853,4294966787,2757,13339,9596,955,497,4294967071
306515177,818,11357,4294957461,8343,2639,4294966634,616,7857,14195,6310,4294966941,4294965860,4294966771,2699,13261,9512,978,582,4294967035
306521177,4294966780,11105,4294957423,8277,2706,4294966451,725,7844,14279,6260,4294966746,4294965902,4294966754,2697,13201,9528,965,582,4294967028
306527177,4294966145,10855,4294957439,8083,2687,4294966254,830,7709,14228,6344,4294966559,4294965946,4294966770,2747,13039,9451,901,596,4294967040
306533177,4294966220,10622,4294957421,7949,2657,4294966029,940,7628,14123,6272,4294966382,4294966145,4294966775,2685,12949,9437,872,640,4294967012
306539177,4294966100,10460,4294957367,7828,2542,4294965757,1099,7421,13947,6143,4294966210,4294966346,4294966789,2755,12886,9425,820,688,4294966969
306545177,4294966140,10284,4294957297,7755,2435,4294965555,1219,7177,13818,6169,4294966047,4294966530,4294966858,2692,12839,9501,717,711,4294966929
306551177,4294966493,10078,4294957136,7755,2322,4294965377,1372,6914,13608,6116,4294965800,4294966594,4294966956,2653,12762,9553,638,717,4294966908
306557177,4294966150,9890,4294956982,7598,2139,4294965235,1500,6700,13493,6136,4294965464,4294966643,4294967068,2684,12672,9609,546,717,4294966908
306563177,4294965526,9487,4294956786,7496,2093,4294964968,1625,6430,13302,6064,4294965161,4294966676,4294967126,2605,12690,9598,476,752,4294966854
306569177,4294965766,9453,4294956645,7430,2167,4294964602,1697,6267,13137,6084,4294964907,4294966645,4294967228,2539,12727,9583,378,738,4294966845
306575177,4294966444,9273,4294956661,7275,2367,4294964615,1690,6245,13089,5961,4294964826,4294966782,4294967290,2583,12590,9648,247,732,4294966890
306581177,4294967066,8910,4294956640,7195,2486,4294964648,1618,6051,13153,5930,4294964886,4294967000,3,2529,12635,9647,161,737,4294966909
306587177,791,8603,4294956652,6985,2723,4294964561,1506,5934,13151,5871,4294965078,4294967046,4294967269,2594,12536,9689,36,703,4294966924
306593177,1723,8386,4294956612,6889,2941,4294964490,1363,5809,13285,5844,4294965315,4294966994,4294967243,2645,12532,9699,2,730,4294966946
306599177,1721,8192,4294956580,6784,3235,4294964578,1230,5619,13380,5985,4294965583,4294966921,4294967205,2571,12539,9815,4294967289,857,4294966985
306605177,1716,8040,4294956621,6927,3354,4294964924,1105,5612,13529,6055,4294965859,4294966831,4294967187,2556,12633,9656,4294967223,872,4294966963
306611177,1699,7892,4294956825,7073,3119,4294964997,950,5584,13608,6112,4294966084,4294966768,4294967180,2608,12621,9631,4294967126,842,4294966987
306617177,1436,7591,4294956491,7142,2592,4294965124,813,5550,13827,6159,4294966483,4294966797,4294967142,2757,12647,9701,4294967086,788,4294967003
306623177,374,7363,4294956557,7258,1877,4294965063,584,5570,13863,6119,4294966947,4294966874,4294967138,2873,12717,9514,4294967025,773,4294967056
306629177,4294967246,7247,4294956376,7451,1030,4294965237,394,5499,14132,6222,35,4294966953,4294967099,2831,12831,9411,4294967008,840,4294967061
306635177,4294966937,7056,4294956145,7612,419,4294965712,218,5385,14402,6244,338,4294966943,4294967082,2601,13082,9305,4294967095,910,4294967081
306641177,4294966587,6987,4294956109,7953,26,4294966140,4294967242,5333,14646,6257,511,4294966918,4294967102,2517,13088,9253,4294967136,954,4294967171
306647177,4294967116,7193,4294956161,8304,4294967005,4294966547,4294967005,5385,14790,6288,608,4294967009,4294967112,2387,13124,9172,4294967148,1016,31
306653177,756,7523,4294956237,8573,4294966693,4294966867,4294966728,5301,14835,6309,690,4294967204,4294967144,2186,13227,9272,4294967170,1112,91
306659177,1099,8072,4294956250,8790,4294966482,4294967257,4294966571,5317,14857,6321,874,240,4294967150,1952,13385,9322,4294967228,1153,183
306665177,1194,8450,4294956201,8999,4294966378,535,4294966436,5336,14937,6321,1052,609,4294967219,1752,13578,9288,4294967270,1217,237
306671177,1395,8690,4294956103,9105,4294966391,1250,4294966303,5310,15046,6488,1118,933,1,1488,13671,9362,4294967293,1231,289
306677177,903,8796,4294956058,9102,4294966359,2009,4294966166,5300,15118,6537,1079,1252,118,1388,13841,9395,4294967273,1148,381
306683177,61,8860,4294956097,8948,4294966180,2658,4294966081,5376,15052,6545,1095,1517,156,1398,13910,9536,4294967201,1106,473
306689177,4294967069,9012,4294956068,8785,4294965795,3125,4294966050,5386,14965,6544,1209,1708,208,1343,14128,9649,4294967219,1011,522
306695177,4294966859,9272,4294956045,8519,4294965358,3247,4294966064,5507,14883,6480,1472,1851,263,1414,14210,9845,4294967234,907,620
306701177,4294966430,9637,4294956181,8534,4294964645,2978,4294966081,5649,14853,6342,1794,1923,318,1570,14280,10043,4294967257,803,690
306707177,4294966625,10198,4294956070,8712,4294963741,2988,4294966095,5804,14725,6322,2057,1971,408,1769,14410,10053,10,682,774
306713177,4294967090,10399,4294955969,8636,4294963082,2968,4294966040,5960,14677,6142,2318,1962,449,1924,14436,10217,16,624,817
306719177,4294966954,11128,4294955971,9007,4294962398,2986,4294965946,6166,14604,6132,2510,1968,525,2102,14523,10219,31,537,867
306725177,4294966817,11162,4294955855,9046,4294962007,3278,4294965832,6291,14542,6223,2633,1829,574,2232,14460,10218,83,467,926
306731177,4294966940,11313,4294955825,9121,4294961883,3356,4294965764,6584,14441,6327,2759,1777,600,2419,14486,10249,127,319,952
306737177,4294966527,11480,4294955845,9038,4294961873,3258,4294965700,6807,14277,6346,2935,1976,588,2611,14429,10166,109,218,966
306743177,4294966043,11647,4294956023,8965,4294962102,3199,4294965692,7017,14234,6429,3013,1932,566,2699,14399,10065,100,170,986
306749177,4294966354,11824,4294956229,9018,4294962460,3123,4294965731,7459,14152,6514,3070,1767,537,2898,14355,9993,82,101,994
306755177,4294966731,11749,4294956541,8834,4294962975,2991,4294965865,7944,14041,6582,3209,1800,468,2913,14311,9896,100,2,960
306761177,4294966835,11795,4294956925,8736,4294963567,2814,4294966002,8177,13981,6500,3293,1837,387,2981,14286,9821,100,4294967209,913
306767177,188,11773,4294957265,8661,4294964261,2865,4294966172,8518,13871,6489,3259,1665,350,3000,14172,9814,100,4294967218,878
306773177,909,11637,4294957696,8527,4294964863,2809,4294966338,8490,13906,6383,3065,1583,331,2983,14042,9710,117,4294967206,809
306779177,827,11672,4294958149,8492,4294965205,2531,4294966477,8645,13659,6185,2624,1084,379,2992,13985,9687,154,4294967161,738
306785177,512,11750,4294958301,8448,4294965522,2245,4294966650,8861,13380,5930,2396,1349,377,3038,13936,9651,217,4294967105,664
306791177,513,11825,4294958257,8371,4294965863,1898,4294966841,8614,13262,5824,1925,1517,385,2972,13765,9640,304,4294967102,576
306797177,74,12078,4294958311,8432,4294966416,1356,4294967062,8662,12755,5664,1386,1278,442,2892,13665,9838,388,4294967169,496
306803177,4294966724,12293,4294958318,8420,4294966916,1076,4294967276,8752,12272,5601,1104,1427,333,2880,13549,9800,484,4294967202,394
306809177,4294966616,12384,4294958552,8338,4294967274,995,138,8647,12044,5701,732,1186,216,2860,13541,9910,560,4294967197,331
306815177,4294966456,12428,4294958641,8109,369,957,265,8936,11720,5666,544,830,127,2868,13465,9866,538,4294967201,204
306821177,4294965908,12399,4294958645,7948,989,886,423,9046,11591,5785,439,507,16,2876,13474,9925,527,4294967170,136
306827177,4294965819,12343,4294958804,7729,1498,817,557,9283,11722,5700,253,54,4294967224,2940,13467,9913,517,4294967142,37
306833177,4294965949,12178,4294959005,7545,1780,566,692,9420,11788,5633,41,4294967092,4294967200,2971,13377,9917,541,4294967203,4294967258
306839177,4294965562,12080,4294959101,7336,1835,122,793,9486,11904,5443,177,4294966622,4294967160,3040,13425,9963,531,4294967205,4294967189
306845177,4294965310,12085,4294959097,7209,1815,4294967002,883,9346,12126,5460,344,4294966016,4294967154,3024,13415,9946,543,4294967280,4294967092
306851177,4294965684,12074,4294959061,7029,1732,4294966700,982,9356,12316,5313,364,4294965384,4294967156,3025,13458,9992,577,84,4294967023
306857177,4294965823,11932,4294958973,7016,1683,4294966452,1097,9299,12474,5304,334,4294965049,4294967200,2984,13609,9821,596,183,4294966919
306863177,4294965846,11749,4294958913,7077,1516,4294966143,1194,9155,12595,5203,52,4294964653,4294967239,2896,13694,9781,624,240,4294966857
306869177,4294966431,11580,4294958689,6990,1235,4294965712,1286,8989,12614,5067,4294967007,4294964311,4294967236,2818,13713,9717,637,230,4294966784
306875177,4294966872,11463,4294958449,7142,936,4294965236,1416,8863,12798,4982,4294966503,4294964153,4294967147,2801,13770,9764,643,256,4294966714
306881177,4294966859,11425,4294958169,7140,743,4294964831,1493,8787,12874,4911,4294966231,4294964115,4294967118,2805,13862,9649,673,259,4294966660
306887177,4294967280,11457,4294957862,7200,645,4294964515,1595,8649,13051,4832,4294965643,4294964247,4294966983,2675,13911,9588,698,301,4294966616
306893177,551,11526,4294957452,7289,631,4294964340,1694,8461,13167,4843,4294965164,4294964408,4294966849,2654,13933,9403,733,355,4294966558
306899177,427,11497,4294957017,7501,704,4294964146,1831,8323,13334,4917,4294964674,4294964663,4294966694,2555,14056,9406,756,358,4294966506
306905177,340,11063,4294956338,7500,1080,4294963985,2013,8050,13417,5060,4294964302,4294964875,4294966572,2530,14015,9388,703,385,4294966486
306911177,711,11208,4294955781,7302,2118,4294963050,2216,7771,13643,5226,4294963974,4294964961,4294966435,2473,14021,9213,641,410,4294966450
306917177,588,11561,4294955374,7312,3591,4294963075,2374,7461,13755,5283,4294963687,4294964836,4294966349,2411,13981,9208,568,404,4294966431
306923177,212,11517,4294955296,7395,5139,4294963669,2548,7259,13995,5248,4294963506,4294964678,4294966198,2402,13940,9100,535,418,4294966408
306929177,340,11116,4294955300,7307,6356,4294963961,2598,7098,14122,5314,4294963465,4294964615,4294966051,2346,13927,9162,467,397,4294966420
306935177,439,10750,4294955470,7183,7255,4294963669,2587,7033,14337,5406,4294963566,4294964721,4294965926,2332,13933,9101,372,373,4294966411
306941177,383,10404,4294955655,7313,7841,4294963167,2601,6715,14366,5388,4294963681,4294964632,4294965863,2345,13900,9090,262,270,4294966434
306947177,1024,10178,4294956089,7384,7855,4294962504,2558,6652,14353,5429,4294963979,4294964636,4294965803,2359,13868,9202,222,284,4294966468
306953177,1680,10019,4294956246,7616,7272,4294962176,2553,6411,14476,5462,4294964076,4294964643,4294965779,2266,13804,9203,73,150,4294966461
306959177,1356,9534,4294956241,7507,6648,4294961629,2595,6507,14205,5526,4294964562,4294964743,4294965725,2318,13667,9386,39,129,4294966493
306965177,899,9570,4294956162,7434,6294,4294961172,2531,6172,14583,5603,4294964880,4294965398,4294965655,2354,13586,9447,72,216,4294966545
306971177,960,9706,4294956309,7801,5709,4294961661,2458,5930,14385,5667,4294964895,4294965157,4294965743,2324,13639,9546,67,312,4294966592
306977177,753,9313,4294956277,7761,4796,4294962297,2371,5576,14586,5790,4294965039,4294965147,4294965785,2312,13512,9605,4294967270,199,4294966645
306983177,384,8919,4294956420,7748,3876,4294962651,2234,5492,14531,5809,4294965047,4294964976,4294965884,2397,13508,9670,4294967209,89,4294966708
306989177,342,8614,4294956186,7634,3209,4294962894,2054,5548,14462,5884,4294965303,4294964970,4294965895,2446,13399,9629,4294967170,34,4294966752
306995177,11,8292,4294956351,7770,2871,4294963093,1815,5370,14474,6013,4294965565,4294965100,4294965944,2398,13277,9709,4294967131,19,4294966825
307001177,4294966599,8182,4294956422,7900,2461,4294963178,1572,5111,14764,6108,4294965764,4294965278,4294966033,2462,13159,9747,4294967122,25,4294966899
307007177,4294966533,8114,4294956443,8073,2184,4294963217,1361,5496,14664,6216,4294966036,4294965553,4294966082,2420,13072,9810,4294967183,72,4294966959
307013177,4294967029,8336,4294956453,8057,1934,4294963482,1162,5103,15014,6028,4294965861,4294965588,4294966137,2487,13006,9835,4294967204,58,4294967005
307019177,4294967278,8257,4294956343,8003,1717,4294963989,965,5179,14851,6175,4294966108,4294966168,4294966238,2507,12874,9879,4294967180,116,4294967069
307025177,392,8153,4294956306,8143,1831,4294964577,723,4959,14880,6232,4294966238,4294966154,4294966342,2439,12779,9895,4294967185,159,4294967120
307031177,1043,8045,4294956626,8129,2114,4294964822,511,5193,14948,6179,4294966373,4294966686,4294966414,2429,12611,9939,4294967154,245,4294967219
307037177,975,7963,4294956728,8269,1916,4294965110,340,5227,14715,6579,4294966908,85,4294966430,2382,12497,9915,4294967150,274,4294967272
307043177,536,8041,4294956661,8310,1727,4294965586,206,3863,15578,6425,4294966378,4294966880,4294966617,2343,12392,9803,4294967190,323,23
307049177,585,8008,4294956462,8251,1257,4294965863,111,4359,14889,6723,4294966125,4294965799,4294966911,2328,12205,9730,4294967181,348,84
307055177,518,8190,4294956391,8223,1291,4294966028,58,4864,14950,6794,4294966684,4294966018,4294966944,2345,12159,9704,4294967086,351,134
307061177,54,8278,4294956332,8131,1021,4294966435,2,5125,14926,6803,4294966930,4294966837,4294967018,2311,12025,9689,4294967025,341,191
307067177,96,8554,4294956311,8225,656,4294966902,4294967250,5111,14854,6815,322,269,4294967047,2448,12033,9748,4294967002,363,254
307073177,279,8882,4294956256,8307,285,231,4294967219,4929,14947,6822,863,582,4294967131,2648,11916,9611,4294966979,411,380
307079177,34,9096,4294956320,8503,4294966996,919,4294967160,4794,14955,6825,1214,552,4294967239,2533,12195,9451,4294967028,564,344
307085177,115,9322,4294956368,8513,4294966344,1618,4294967110,4750,14975,6822,1464,495,85,2256,12341,9363,4294967107,730,367
307091177,698,9344,4294956400,8410,4294965605,2156,4294966998,4844,14828,6757,1826,592,224,2067,12550,9337,4294967159,810,406
307097177,697,9398,4294956317,8247,4294965053,2589,4294966920,4996,14707,6671,2192,811,310,1974,12690,9269,4294967160,835,493
307103177,422,9558,4294956402,8299,4294964638,2781,4294966789,5148,14593,6488,2463,1062,431,1789,12893,9195,4294967149,890,571
307109177,485,9803,4294956330,8419,4294964156,3146,4294966733,5343,14424,6472,2700,1237,555,1698,12963,9163,4294967101,905,610
307115177,246,9759,4294956258,8473,4294963975,3492,4294966677,5474,14272,6397,2923,1362,643,1682,13218,9126,4294967051,890,672
307121177,4294966770,9938,4294956293,8404,4294963988,3686,4294966557,5624,14196,6366,3164,1529,660,1735,13509,9230,4294967062,793,709
307127177,4294966437,10002,4294956333,8341,4294964022,3918,4294966470,5776,14106,6347,3304,1757,724,1748,13864,9344,4294967117,712,776
307133177,4294966207,10117,4294956375,8332,4294964068,4089,4294966393,5941,14072,6108,3508,1943,777,1781,14141,9512,4294967121,554,777
307139177,4294965565,10306,4294956401,8376,4294964093,4202,4294966367,6136,14140,6107,3571,2071,813,1914,14406,9650,4294967092,423,828
307145177,4294965624,10387,4294956320,8244,4294964195,4425,4294966332,6276,14110,6018,3563,2225,879,2004,14568,9771,4294967087,298,858
307151177,4294966287,10516,4294956448,7939,4294964546,4539,4294966312,6442,14074,6002,3474,2199,971,2174,14731,10007,4294967134,209,872
307157177,4294966428,10683,4294956526,7829,4294964699,4419,4294966357,6668,13992,5928,3463,2125,1039,2335,14964,10048,4294967226,73,887
307163177,4294966344,10899,4294956772,8053,4294964845,4398,4294966537,6560,14008,6045,3148,1736,1124,2421,15007,10146,4294967277,4294967276,897
307169177,4294966742,10798,4294956953,7971,4294965110,4371,4294966718,7322,13671,6032,2901,1458,1208,2532,15065,10197,7,4294967163,905
307175177,4294966724,11035,4294957169,8016,4294965107,4232,4294966872,7780,13542,5984,2843,2265,1098,2695,15078,10206,14,4294967083,912
307181177,4294966246,11196,4294957214,8081,4294965471,4027,4294966919,7841,13539,5951,2802,2563,1064,2734,14997,10253,10,4294967012,906
307187177,4294966271,11634,4294957618,8006,4294965261,3747,4294966934,8024,13443,5802,2908,2474,1021,2744,14888,10154,4294967295,4294966942,885
307193177,4294966529,11768,4294957519,8486,4294964860,4303,4294967025,8095,13451,5785,3009,2458,927,2877,14781,10091,4294967289,4294966864,848
307199177,4294966946,11691,4294957525,8531,4294964720,4338,4294967125,8139,13446,5740,3109,2082,833,2883,14734,9986,13,4294966789,797
307205177,776,11355,4294957560,8390,4294964652,4001,4294967291,8146,13525,5659,3063,1558,776,2982,14550,9860,4294967293,4294966753,747
307211177,1717,11613,4294957796,8302,4294964075,3717,113,8434,13243,5575,2781,931,808,3041,14370,9783,4294967261,4294966732,672
307217177,1726,11543,4294957535,8114,4294964130,3490,279,8727,13030,5521,2585,655,757,3042,14310,9673,4294967278,4294966711,609
307223177,1708,11767,4294957641,7812,4294964629,2992,370,8938,12853,5308,2779,366,603,3039,14175,9613,1,4294966696,508
307229177,589,11920,4294957676,7577,4294964897,2842,481,9018,12709,5223,2895,297,446,2993,14085,9544,22,4294966742,423
307235177,4294966619,11844,4294957701,7386,4294965547,2591,623,9248,12596,5146,2850,146,354,2954,13975,9503,38,4294966738,370
307241177,4294965254,11893,4294957749,7337,4294966235,2247,762,9135,12669,5077,2854,298,242,2874,13954,9441,5,4294966740,264
307247177,4294964927,11961,4294957875,7258,4294966980,1913,827,9104,12504,4884,2394,4294967213,199,2732,13819,9465,16,4294966770,144
307253177,4294965051,11930,4294958113,7227,481,1521,892,8997,12541,4774,2173,4294967121,105,2851,13748,9526,23,4294966731,101
307259177,4294964950,11863,4294958371,7137,1017,1041,923,8921,12652,4614,1680,4294966814,30,3000,13506,9567,4294967266,4294966730,33
307265177,4294965171,11867,4294958370,7021,1517,565,979,8932,12619,4471,1307,4294966541,4294967218,3027,13538,9628,4294967236,4294966760,4294967228
307271177,4294965959,11872,4294958447,6964,2093,127,1067,9013,12570,4402,962,4294966355,4294967146,3059,13518,9673,4294967242,4294966765,4294967071
307277177,4294966316,11719,4294958437,7225,2512,4294967136,1168,8970,12777,4166,561,4294966108,4294967059,3100,13582,9709,4294967275,4294966792,4294967001
307283177,4294966479,11566,4294958211,7324,2864,4294966804,1278,9009,12910,4105,73,4294965766,4294967026,3111,13498,9824,31,4294966811,4294966907
307289177,4294967096,11451,4294957915,7220,3111,4294966401,1378,9046,12993,4165,4294966982,4294965734,4294966947,3185,13566,10034,52,4294966877,4294966823
307295177,82,11367,4294957736,7231,3300,4294965897,1388,8997,13079,4116,4294966457,4294965656,4294966866,3174,13597,10069,81,4294966956,4294966754
307301177,4294967192,11313,4294957702,7382,3421,4294965413,1405,8899,13125,4132,4294965988,4294965573,4294966836,3188,13586,10149,136,4294966993,4294966679
307307177,138,11228,4294957640,7580,3386,4294964989,1398,8814,13283,4099,4294965522,4294965524,4294966756,3182,13648,10188,209,4294967097,4294966594
307313177,568,11093,4294957312,7633,3278,4294964624,1399,8684,13476,4131,4294964990,4294965341,4294966695,3160,13645,10178,292,4294967173,4294966522
307319177,427,10995,4294957005,7666,3259,4294964337,1430,8606,13700,4206,4294964513,4294965206,4294966623,3090,13590,10119,336,4294967232,4294966462
307325177,435,10888,4294956621,7600,3479,4294964085,1493,8481,13870,4275,4294964012,4294965150,4294966564,3001,13603,10098,417,24,4294966434
307331177,847,10428,4294956326,7422,3898,4294963566,1542,8397,14055,4412,4294963591,4294965087,4294966488,2956,13554,9976,488,97,4294966389
307337177,690,10669,4294956096,7554,4652,4294963191,1535,8352,14160,4550,4294963289,4294965098,4294966415,2858,13502,9820,554,191,4294966373
307343177,415,10640,4294956106,7690,5320,4294963476,1528,8264,14293,4779,4294963087,4294965146,4294966320,2799,13530,9751,622,341,4294966364
307349177,808,10377,4294956225,7790,5642,4294963694,1465,7971,14381,4872,4294962956,4294965103,4294966219,2675,13567,9657,680,444,4294966330
307355177,899,10104,4294956427,7615,5777,4294963642,1372,7833,14453,5232,4294962908,4294965101,4294966129,2611,13611,9548,695,497,4294966306
307361177,500,9884,4294956517,7766,5629,4294963632,1238,7560,14585,5354,4294962921,4294965147,4294966052,2499,13530,9429,700,575,4294966344
307367177,268,9676,4294956585,7847,5315,4294963622,1151,7317,14590,5511,4294963056,4294965138,4294965956,2457,13505,9391,702,624,4294966367
307373177,232,9608,4294956735,7928,4729,4294963809,1059,6975,14710,5618,4294963135,4294965068,4294965863,2368,13482,9445,654,637,4294966392
307379177,4294967109,9442,4294956721,7948,3985,4294963995,991,6721,14698,5732,4294963196,4294964907,4294965870,2285,13400,9492,604,617,4294966434
307385177,4294967193,9274,4294956609,7957,3231,4294963960,921,6504,14668,5773,4294963284,4294964837,4294965856,2273,13390,9495,599,654,4294966498
307391177,714,9208,4294956453,8068,2604,4294963882,867,6492,14615,5815,4294963474,4294964967,4294965852,2253,13478,9695,517,597,4294966553
307397177,939,9100,4294956282,8203,2067,4294963966,774,6192,14611,5803,4294963566,4294965078,4294965846,2354,13350,9842,453,571,4294966615
307403177,634,8926,4294956111,8276,1838,4294964157,625,6170,14491,5860,4294963790,4294965354,4294965883,2386,13292,10046,477,591,4294966691
307409177,805,8889,4294955992,8148,1589,4294964479,393,5649,14552,5918,4294963914,4294965556,4294965935,2342,13185,10063,475,637,4294966743
307415177,936,8678,4294955801,8197,1627,4294965046,146,5337,14502,5985,4294963983,4294965584,4294966015,2300,13117,10175,455,631,4294966816
307421177,652,8528,4294955718,8245,1721,4294965516,4294967158,5429,13988,5905,4294964054,4294965473,4294966149,2321,13032,10310,331,560,4294966904
307427177,737,8407,4294955971,8329,1857,4294965880,4294966879,4936,14423,6098,4294964509,4294966198,4294966154,2329,12868,10269,198,489,4294966973
307433177,952,8459,4294956045,8350,1724,4294966242,4294966656,4859,14308,6115,4294964461,4294965978,4294966337,2432,12636,10334,98,512,4294967057
307439177,549,8414,4294956104,8423,1568,4294966581,4294966490,4742,14293,6325,4294964725,4294966340,4294966391,2435,12522,10238,47,552,4294967106
307445177,260,8497,4294956219,8215,1252,4294966806,4294966341,4657,14241,6534,4294964995,4294966440,4294966519,2470,12340,10198,4294967261,556,4294967139
307451177,327,8639,4294956304,8296,1064,4294967138,4294966248,4837,14560,6731,4294965234,4294967079,4294966580,2477,12212,10032,4294967104,494,4294967218
307457177,20,8701,4294956425,8319,903,310,4294966159,4732,14305,6956,4294965706,417,4294966619,2495,12121,9847,4294967010,538,4294967256
307463177,4294966997,8813,4294956630,8473,657,877,4294966102,3704,15360,7130,4294966284,710,4294966608,2499,11997,9716,4294966929,557,4294967274
307469177,66,8823,4294956764,8537,259,1541,4294966118,3782,14996,7073,4294965620,4294966376,4294967062,2718,11828,9616,4294966877,561,52
307475177,239,8848,4294956813,8476,4294966998,2118,4294966160,4166,14950,7312,4294966616,4294966262,4294967082,2841,11586,9465,4294966805,545,84
307481177,4294967097,8889,4294956703,8402,4294966381,2595,4294966254,4556,15117,7325,4294967014,4294967084,4294967198,2864,11610,9347,4294966784,641,96
307487177,4294966904,8924,4294956686,8337,4294965802,2871,4294966347,4708,15003,7314,437,650,2,2814,11730,9066,4294966861,756,77
307493177,4294966771,9170,4294956580,8432,4294965131,3183,4294966476,4463,15113,7150,1153,1137,144,2713,11912,8929,4294967002,850,92
307499177,4294966166,9154,4294956411,8436,4294964524,3683,4294966568,4344,15188,7098,1599,1137,322,2605,12054,8843,4294967052,953,153
307505177,4294965932,9032,4294956256,8266,4294964210,3980,4294966594,4333,15043,6997,1865,1108,491,2367,12297,8708,4294967089,1053,180
307511177,4294966368,9153,4294956280,8319,4294964065,4183,4294966597,4496,14827,6847,2130,1229,646,2112,12454,8734,4294967072,1113,228
307517177,4294966440,9189,4294956171,8280,4294964009,4426,4294966593,4743,14708,6681,2454,1559,760,1837,12679,8693,4294967081,1133,299
307523177,4294966356,9080,4294956125,8182,4294964112,4551,4294966610,4926,14546,6552,2733,1946,812,1570,12988,8772,4294967204,1179,360
307529177,4294966829,9347,4294956364,8221,4294964153,4587,4294966572,5123,14467,6189,2982,2313,863,1456,13455,8872,74,1133,420
307535177,4294967151,9625,4294956470,8284,4294964080,4859,4294966598,5343,14299,6064,3136,2553,931,1462,13854,8932,137,1059,513
307541177,4294966907,9702,4294956520,8386,4294964181,5212,4294966612,5513,14246,5876,3240,2772,989,1451,14299,9096,182,988,582
307547177,4294966927,9854,4294956672,8405,4294964210,5323,4294966654,5601,14156,5865,3283,2885,999,1328,14578,9306,172,925,605
307553177,4294966954,10008,4294956807,8359,4294964164,5371,4294966701,5765,14104,5658,3292,2921,1066,1296,14736,9513,135,776,655
307559177,4294966331,10178,4294956975,8148,4294963948,5275,4294966752,5622,14088,5714,2974,2528,1212,1502,14902,9710,110,599,732
307565177,4294965836,10793,4294957163,8543,4294963379,5609,4294966800,6501,13900,5613,2801,2399,1318,1622,15011,9853,124,501,773
307571177,4294965858,10752,4294957000,8631,4294963054,5997,4294966869,6822,13844,5661,2747,3223,1308,1789,15154,9897,208,330,812
307577177,4294965536,10663,4294957047,8649,4294962876,5969,4294966935,6940,13737,5704,2622,3275,1349,1925,15430,9962,293,177,820
307583177,4294965280,10783,4294957182,8594,4294962696,5580,4294967063,7430,13686,5621,2847,3361,1317,2159,15475,9971,291,4294967270,849
307589177,4294965824,10785,4294957208,8397,4294962329,5192,4294967182,7394,13768,5666,2933,3295,1244,2382,15404,9997,200,4294967012,896
307595177,4294966310,10951,4294956951,8377,4294962379,4747,4294967288,7551,13846,5648,2906,2755,1181,2623,15381,10045,120,4294966833,911
307601177,4294966580,11227,4294956920,8277,4294962715,4578,104,7891,13920,5703,2856,2366,1080,2734,15357,10022,68,4294966618,922
307607177,93,11328,4294956987,8171,4294963030,4624,180,8248,13723,5588,2882,1596,988,2947,15347,9939,52,4294966430,916
307613177,839,11199,4294956889,7961,4294963420,4478,212,8589,13797,5449,3098,1499,781,3137,15173,9880,30,4294966305,899
307619177,780,11251,4294956945,7891,4294963994,4034,274,8847,13680,5388,3104,1137,623,3174,15105,9823,4294967291,4294966250,883
307625177,659,11341,4294956968,7836,4294964418,3722,320,9435,13534,5148,3260,1381,405,3144,14972,9774,33,4294966207,811
307631177,838,11365,4294956956,7826,4294965104,3351,415,9502,13394,4991,3097,1642,209,2982,14814,9627,81,4294966234,772
307637177,442,11525,4294957106,7704,4294965708,3016,505,9095,13466,4868,2909,1559,18,2822,14721,9669,135,4294966234,712
307643177,4294967129,11499,4294957090,7683,4294966384,2756,545,9432,12912,4790,2598,1200,4294967191,2798,14644,9688,145,4294966199,663
307649177,4294967201,11532,4294957307,7587,4294967038,2493,596,9111,13352,4773,2092,810,4294967062,2908,14322,9731,90,4294966174,600
307655177,4294967240,11562,4294957547,7587,202,2161,668,9423,12488,4644,1471,258,4294967058,2967,14195,9878,88,4294966213,544
307661177,4294967121,11562,4294957641,7541,706,1791,729,9434,12487,4456,1718,495,4294966808,2901,14055,9797,117,4294966263,438
307667177,356,11566,4294957679,7419,1250,1454,798,9435,12352,4357,1269,232,4294966748,2967,14033,9852,187,4294966276,319
307673177,1158,11621,4294957834,7372,1701,1061,865,9231,12352,4417,1147,4294967204,4294966708,3056,13873,9962,213,4294966333,246
307679177,1352,11604,4294957695,7238,1990,806,887,8960,12542,4265,676,4294966413,4294966743,3125,13788,10072,250,4294966450,157
307685177,1525,11616,4294957591,7327,2653,487,933,9446,12555,4097,27,4294966052,4294966782,3266,13554,10165,301,4294966551,62
307691177,1718,11530,4294957721,7390,3066,293,948,9364,12669,4031,4294966923,4294966255,4294966686,3400,13413,10282,376,4294966689,4294967270
307697177,1349,11391,4294957664,7361,3287,4294967283,919,9227,12739,4105,4294966574,4294966119,4294966670,3441,13259,10349,454,4294966805,4294967179
307703177,591,11406,4294957709,7482,3488,4294966842,875,9048,12728,4259,4294966351,4294965851,4294966641,3428,13128,10373,526,4294966945,4294967066
307709177,376,11363,4294957693,7772,3490,4294966442,821,8852,12898,4328,4294966097,4294965363,4294966630,3453,12955,10344,569,4294967077,4294966963
307715177,9,11448,4294957603,7870,3367,4294965992,742,8762,13113,4412,4294965712,4294964955,4294966668,3481,12841,10303,587,4294967194,4294966858
307721177,4294966704,11564,4294957439,8115,3165,4294965609,640,8776,13403,4636,4294965365,4294964790,4294966642,3519,12757,10287,582,9,4294966750
307727177,4294966682,11608,4294957211,8257,3134,4294965310,559,8701,13731,4840,4294964997,4294964671,4294966617,3289,12626,10174,588,163,4294966625
307733177,4294966810,11691,4294957154,8460,3099,4294965138,444,8697,14056,5015,4294964657,4294964586,4294966633,3244,12617,10088,576,284,4294966552
307739177,4294966450,11643,4294956878,8470,3086,4294964946,359,8622,14285,5238,4294964341,4294964608,4294966599,3181,12588,10061,595,421,4294966461
307745177,4294966197,11518,4294956695,8455,3017,4294964739,307,8368,14337,5471,4294964073,4294964571,4294966583,3095,12589,9885,611,527,4294966371
307751177,4294966335,11371,4294956442,8461,2949,4294964488,195,8114,14348,5591,4294963876,4294964631,4294966584,3070,12576,9838,657,584,4294966270
307757177,4294966089,10874,4294956182,8407,3151,4294963999,179,7826,14321,5800,4294963727,4294964777,4294966634,3218,12616,9710,645,673,4294966205
307763177,4294965819,10858,4294956027,8297,3615,4294963501,103,7492,14242,5908,4294963600,4294964939,4294966639,3131,12643,9629,638,718,4294966147
307769177,4294966229,10678,4294956020,8298,4215,4294963539,29,7089,14181,5870,4294963518,4294964852,4294966690,3152,12679,9453,641,768,4294966100
307775177,4294966465,10429,4294956100,8202,4753,4294963614,4294967232,6799,14091,5863,4294963408,4294964713,4294966767,3082,12727,9493,662,806,4294966070
307781177,4294966264,9939,4294956181,8129,5054,4294963508,4294967160,6614,14019,5975,4294963439,4294964614,4294966896,3005,12763,9341,643,790,4294966074
307787177,4294966465,9571,4294956317,8061,5229,4294963124,4294967144,6279,14079,5922,4294963449,4294964613,4294966970,2946,12808,9407,612,832,4294966080
307793177,4294966713,9190,4294956524,8171,5259,4294962848,4294967170,5893,14125,5945,4294963454,4294964451,4294967070,2821,12950,9365,573,865,4294966097
307799177,4294966732,8951,4294956801,8140,5197,4294962711,4294967173,5752,14126,6080,4294963509,4294964121,4294967212,2834,12914,9404,449,824,4294966139
307805177,427,8668,4294956851,8328,4923,4294962872,4294967205,5796,14160,6152,4294963851,4294964218,4294967288,2650,13032,9367,338,791,4294966218
307811177,1722,8296,4294957106,8109,4547,4294962704,4294967219,5662,14186,6206,4294964317,4294964530,3,2736,12904,9687,201,794,4294966267
307817177,1733,8320,4294957205,8120,4193,4294962879,4294967242,5617,14371,6328,4294965062,4294964900,4294967292,2569,12942,9626,39,927,4294966319
307823177,1722,8152,4294957345,8183,3761,4294963342,4294967218,5393,14728,6411,4294965548,4294964984,31,2658,12855,9700,4294967115,800,4294966424
307829177,1723,7913,4294957611,8020,3269,4294963491,4294967192,5308,14611,6467,4294966328,4294965136,4294967288,2557,12812,9817,4294967107,856,4294966497
307835177,1721,7963,4294957724,7963,2706,4294963647,4294967120,4896,15358,6496,4294966949,4294965442,4294967270,2399,12613,9902,4294967138,931,4294966566
307841177,1713,7850,4294957709,7884,2167,4294963912,4294967087,4669,15618,6649,4294967007,4294964921,82,2308,12594,9932,4294967133,1137,4294966714
307847177,1730,7760,4294957511,7872,1590,4294964375,4294966978,4655,15736,6585,4294967138,4294964338,199,2160,12425,10027,4294967007,1296,4294966847
307853177,1171,7486,4294957235,7729,1091,4294964805,4294966817,5076,15719,6638,262,4294964569,243,1995,12391,10075,4294966842,1323,4294967032
307859177,78,7361,4294956992,7695,617,4294965123,4294966678,5098,15889,6509,734,4294965223,236,2004,12193,10010,4294966726,1230,4294967175
307865177,4294966684,7459,4294956858,7645,233,4294965287,4294966590,5015,16017,6497,1016,4294965604,270,2071,12330,9974,4294966821,1220,89
307871177,4294966610,7644,4294956671,7719,4294967193,4294965548,4294966582,5044,16030,6402,1298,4294965855,305,2091,12551,9816,4294966966,1312,254
307877177,4294966134,7736,4294956420,7711,4294967010,4294965879,4294966633,5145,16065,6398,1445,4294966250,353,1917,12730,9698,4294967024,1486,430
307883177,4294965511,7935,4294956041,7819,4294966775,4294966171,4294966694,5161,16045,6269,1549,4294966710,395,1682,13159,9569,4294967120,1685,566
307889177,4294965345,8171,4294955797,8053,4294966451,4294966399,4294966720,5213,15917,6146,1586,4294967227,371,1541,13542,9449,4294967271,1791,761
307895177,4294964950,8384,4294955688,8271,4294965955,4294966714,4294966782,5214,15743,6016,1587,479,399,1410,13811,9390,153,1878,935
307901177,4294964941,8689,4294955414,8271,4294965477,22,4294966799,5182,15555,5871,1569,1044,383,1247,14152,9333,285,1938,1097
307907177,4294965324,8874,4294955244,8358,4294965078,783,4294966725,5098,15221,5707,1626,1555,427,1089,14477,9379,370,1930,1214
307913177,4294966461,8894,4294955029,8452,4294964682,1571,4294966680,5072,14928,5630,1747,1985,397,1055,14783,9406,471,1899,1308
307919177,4294966945,9049,4294954976,8498,4294964116,2118,4294966708,5059,14572,5449,1918,2352,477,1022,14888,9406,505,1921,1436
307925177,4294966786,9312,4294954772,8860,4294963507,2545,4294966789,5167,14228,5318,2057,2580,492,1102,15093,9268,527,1757,1507
307931177,4294966223,9463,4294954645,8839,4294963093,2893,4294966850,5234,13894,5209,2218,2753,460,1244,15229,9277,539,1510,1554
307937177,4294964937,9884,4294954780,8926,4294962573,3152,4294966908,5445,13464,5088,2383,2855,445,1451,15277,9362,538,1208,1664
307943177,4294964928,10365,4294954634,9124,4294962200,3900,4294967036,5650,13091,5070,2495,3044,362,1613,15343,9379,563,962,1729
307949177,4294964925,10588,4294954636,8975,4294962188,4366,4294967200,5718,12754,4923,2547,3036,341,1868,15318,9386,508,693,1728
307955177,4294964935,10868,4294954918,8711,4294962257,4625,127,6167,12492,4874,2774,3113,300,2021,15284,9530,464,466,1721
307961177,4294964921,11694,4294955585,8829,4294962026,4938,393,6425,12411,4676,3136,3205,154,2138,15177,9560,470,258,1710
307967177,4294964927,11354,4294955964,8645,4294962070,5799,789,6517,12346,4639,3663,3145,4294967232,2301,15071,9699,478,41,1693
307973177,4294965217,11394,4294956356,8529,4294962438,5982,1164,6654,12389,4681,4137,2710,4294967054,2378,14957,9775,401,4294967128,1670
307979177,4294966031,11464,4294956826,8333,4294962732,5795,1499,7066,12540,4640,4495,2205,4294966861,2498,14886,9865,359,4294966938,1655
307985177,254,11549,4294957252,8214,4294963205,5231,1769,7637,12477,4673,4752,1859,4294966766,2748,14762,9963,296,4294966779,1586
307991177,1733,11788,4294957601,8218,4294963735,4784,1999,7856,12624,4656,4950,1710,4294966648,2948,14584,10027,243,4294966688,1553
307997177,1723,12070,4294957858,8241,4294964266,4476,2115,7910,12939,4588,4909,1289,4294966587,3145,14524,10121,289,4294966577,1465
308003177,1722,12223,4294957888,8381,4294964713,4344,2102,8285,12983,4479,5008,1000,4294966483,3266,14385,10027,324,4294966535,1377
308009177,1722,12325,4294957955,8335,4294965410,3960,2064,8358,13198,4507,4986,906,4294966428,3262,14386,9800,374,4294966584,1221
308015177,950,12352,4294957795,8422,4294966220,3337,1989,8461,13622,4482,4779,568,4294966358,3160,14411,9833,476,4294966647,1034
308021177,4294966963,12685,4294957982,8506,4294967261,2791,1895,8928,13712,4417,4489,242,4294966352,3236,14296,9839,595,4294966596,919
308027177,4294966523,12888,4294958038,8656,1191,2454,1784,9121,13917,4471,4304,501,4294966324,3479,14112,9768,684,4294966630,837
308033177,4294966582,13165,4294958389,8530,2366,2142,1658,9180,14230,4531,3620,278,4294966447,3541,14121,9597,777,4294966751,658
308039177,4294966488,13203,4294958710,8557,3419,1892,1514,9380,14257,4555,2847,4294967246,4294966632,3525,13970,9422,913,4294966882,461
308045177,4294966839,13304,4294958792,8627,4508,1604,1364,9470,14404,4788,2162,4294967107,4294966747,3569,13886,9248,1052,4294966992,307
308051177,362,13315,4294959161,8492,5369,1231,1099,9412,14445,4762,1197,4294966833,4294966904,3556,13685,9089,1218,4294967080,113
308057177,827,13239,4294959448,8443,5878,740,810,9604,14040,4864,572,4294966865,4294967052,3639,13296,8984,1238,4294967155,4294967292
308063177,1038,13274,4294959269,8702,6082,334,474,9539,14132,5049,150,4294967115,4294967086,3782,13066,8959,1264,4294967259,4294967196
308069177,1468,12928,4294959478,9149,6352,466,247,9399,14190,5093,4294966580,4294967151,4294967255,3818,12949,8807,1367,89,4294967036
308075177,1335,12364,4294959786,9095,5507,267,4294967266,9123,14171,5250,4294965883,4294966941,29,3924,12678,8968,1387,84,4294966912
308081177,620,11778,4294959768,8643,4177,4294966802,4294966995,9043,14206,5279,4294965166,4294966657,176,4143,12470,9116,1384,115,4294966854
308087177,465,11502,4294959590,8166,2834,4294965826,4294966784,8993,14291,5336,4294964618,4294966384,321,4085,12250,9278,1348,221,4294966712
308093177,564,11211,4294959196,7972,1973,4294964895,4294966658,8910,14289,5371,4294964221,4294966223,454,4243,11926,9520,1237,215,4294966603
308099177,157,11055,4294958649,7724,1755,4294964285,4294966545,8837,14284,5526,4294963998,4294966075,590,4427,11502,9726,1061,202,4294966541
308105177,4294967203,10767,4294958371,7711,2023,4294963977,4294966543,8669,14299,5501,4294963858,4294965862,707,4248,11103,10016,901,352,4294966414
308111177,4294967143,10429,4294958165,7528,2412,4294963765,4294966548,8437,14177,5525,4294963771,4294965594,785,4107,10965,10186,766,481,4294966279
308117177,4294966487,9851,4294958156,7378,2707,4294963838,4294966539,8297,14357,5506,4294963783,4294965210,805,3879,11055,10286,681,607,4294966205
308123177,4294965761,9084,4294958116,6950,2637,4294963458,4294966552,8050,14262,5444,4294963804,4294964933,857,3550,11112,10414,541,792,4294966132
308129177,4294965935,8452,4294958015,6593,2376,4294962847,4294966611,7844,14247,5218,4294963945,4294964660,845,3305,11010,10504,268,907,4294966070
308135177,4294966160,8138,4294957818,6403,2071,4294962280,4294966667,7586,14216,5159,4294964156,4294964448,764,3276,10757,10286,4294967187,1055,4294966020
308141177,4294966060,7900,4294957607,6347,1735,4294961910,4294966780,7353,14144,4990,4294964369,4294964368,753,3014,10603,10094,4294966838,1245,4294965956
308147177,4294966526,7768,4294957325,6433,1251,4294961653,4294966847,6983,14154,4840,4294964551,4294964332,755,2549,10681,9864,4294966613,1492,4294965883
308153177,4294967088,7654,4294956721,6613,767,4294961599,4294966836,6741,14053,4696,4294964679,4294964424,776,2127,10963,9423,4294966533,1722,4294965892
308159177,4294966939,7465,4294955921,6589,828,4294960750,4294966803,6397,14036,4513,4294964890,4294964636,788,1470,11401,9083,4294966505,2090,4294965960
308165177,4294967217,7886,4294955252,6880,1347,4294960514,4294966727,5804,14156,4585,4294964956,4294964609,786,1184,11913,8762,4294966379,2145,4294966121
308171177,889,8198,4294954890,7239,1851,4294961261,4294966645,5552,14184,4572,4294964972,4294964338,897,999,12141,8711,4294966181,2172,4294966351
308177177,1726,8004,4294954553,7356,2181,4294962332,4294966686,5444,14168,4529,4294964991,4294964515,965,613,12611,8648,4294965957,2380,4294966537
308183177,1732,7431,4294954550,7577,2115,4294963012,4294966773,5533,14255,4478,4294965092,4294964873,1021,314,13119,8550,4294965761,2314,4294966618
308189177,1725,7767,4294954359,7316,1745,4294962633,4294966841,5283,14398,4367,4294965114,4294965100,1121,4294967168,13450,8533,4294965745,2309,4294966729
308195177,1722,8389,4294954303,7376,1253,4294963243,4294966877,5164,14277,4233,4294965112,4294965251,1254,4294967028,14030,8757,4294965819,2270,4294966874
308201177,1716,8739,4294954291,7583,940,4294963859,4294966930,5112,14259,4209,4294965195,4294965509,1359,4294966825,14637,9016,4294965898,2272,4294966996
308207177,1726,9042,4294954330,7648,200,4294964243,4294966966,5143,14186,4248,4294965302,4294965770,1373,4294966959,15181,9298,4294965899,2205,4294967181
308213177,1726,9235,4294954281,7644,4294966882,4294964475,4294966971,5164,14165,4218,4294965369,4294966117,1409,4294966965,15837,9790,4294965888,2071,4294967224
308219177,1722,9551,4294954309,7751,4294966447,4294964732,4294966936,5323,14118,4273,4294965438,4294966441,1441,4294967275,16150,10167,4294965840,1713,76
308225177,1706,9909,4294954202,7881,4294966250,4294965138,4294966945,5328,13912,4428,4294965574,4294966847,1426,467,16669,10382,4294965913,1309,171
308231177,1146,10211,4294954098,8113,4294966332,4294965699,4294967041,5147,13904,4452,4294965703,4294967069,1378,1042,17086,10763,4294966215,930,340
308237177,4294966912,10575,4294954128,8223,4294966480,4294966186,4294967162,5058,13697,4590,4294965880,4294967050,1314,1668,17723,11004,4294966582,559,419
308243177,4294965652,11046,4294953974,8438,4294966565,4294966626,67,5198,13712,4785,4294966168,4294967120,1105,2140,18178,11174,4294966977,211,485
308249177,4294965322,11536,4294954183,8747,4294966599,4294967010,195,5408,13737,4820,4294966655,4294967281,768,2757,18532,11374,119,4294967149,644
308255177,4294964952,12002,4294954519,9056,4294966659,256,111,5681,13860,5019,65,95,436,3323,18545,11389,499,4294966832,848
308261177,4294964936,12217,4294954801,9331,4294966634,811,120,6000,14018,5380,888,161,4294967249,3872,18514,11267,885,4294966423,1006
308267177,4294964936,12388,4294954938,9454,4294966524,1336,280,6331,14322,5597,1767,249,4294966642,3943,18332,10709,1367,4294966255,1127
308273177,4294964905,12772,4294955198,9592,4294966297,1866,327,6794,14740,5801,2577,127,4294966068,3730,17911,10150,1858,4294966227,1135
308279177,4294964953,12982,4294955569,9751,4294966104,2553,280,7196,14976,6187,3308,60,4294965571,3672,17234,9761,2200,4294966122,1212
308285177,4294964945,13011,4294956065,9867,4294965904,3090,216,7660,15357,6441,3960,69,4294965084,3719,16382,9525,2394,4294966019,1355
308291177,4294964932,13148,4294956406,9850,4294965850,3397,176,8055,15669,6640,4503,154,4294964632,3574,15464,9515,2591,4294965980,1397
308297177,4294964923,13020,4294956839,9843,4294966121,3768,151,8350,15891,6764,4883,312,4294964259,3435,14577,9492,2767,4294966036,1431
308303177,4294964948,12675,4294957242,9801,4294966613,3958,180,8529,16002,6764,4650,500,4294964088,3369,13709,9451,2904,4294966191,1376
308309177,4294964927,12308,4294957689,9532,130,4144,293,8488,15983,6634,4299,743,4294963834,3261,12611,9379,2891,4294966365,1311
308315177,4294964955,11797,4294958267,8978,1003,4308,380,8489,15764,6649,3877,973,4294963613,3020,11578,9245,2801,4294966603,1225
308321177,4294964923,11140,4294958638,8400,2128,4353,526,8557,15583,6762,3292,1304,4294963591,2878,10742,9147,2802,4294966861,1037
308327177,4294964928,10615,4294959308,7846,3342,3893,705,8619,15389,6842,2452,1700,4294963723,2729,10005,9140,2690,4294967005,857
308333177,4294964943,10043,4294959716,7676,4552,3625,870,8623,15243,6692,1339,2149,4294963905,2821,9540,8897,2526,4294967152,703
308339177,4294964954,9582,4294960205,7470,5621,3535,1087,8604,14856,6771,204,2603,4294964146,2937,9193,8861,2205,4294967203,486
308345177,4294965245,9142,4294960711,7112,5942,3309,1295,8422,14279,6703,4294966427,3055,4294964574,3119,8725,8653,1697,4294967175,318
308351177,4294966683,8883,4294961140,6781,5670,2960,1440,8141,13731,6712,4294965455,3374,4294965121,2951,8337,8670,1092,4294967291,62
308357177,202,8607,4294961678,6466,5116,2422,1568,7669,13104,6496,4294964309,3490,4294965794,2896,8080,8781,563,45,4294967115
308363177,384,8837,4294961746,6387,4046,2156,1633,7215,12476,6180,4294963093,3494,4294966502,2981,8232,8812,122,8,4294966925
308369177,925,8694,4294961952,6699,3106,2653,1770,6758,11793,5934,4294962001,3405,4294967146,2921,8352,9049,4294966916,89,4294966695
308375177,1169,8296,4294962307,6488,1421,2911,1827,6399,10871,5682,4294961121,3196,559,3042,8525,9151,4294966286,82,4294966550
308381177,953,7750,4294962373,5895,4294966497,2403,1805,6051,10339,5293,4294960579,2934,1103,3337,8836,9258,4294965872,183,4294966375
308387177,1050,7325,4294962037,4991,4294964478,895,1692,5683,10007,4986,4294960507,2540,1491,3434,9145,9144,4294965623,433,4294966294
308393177,754,7982,4294961521,4941,4294963449,4294967130,1523,5225,9914,4445,4294960745,2117,1704,3069,9802,9397,4294965609,784,4294966165
308399177,4294966638,8389,4294960914,5060,4294963153,4294966903,1266,4900,9733,4045,4294961223,1544,1781,3014,10690,9869,4294965832,1034,4294966146
308405177,4294965283,8672,4294960365,5355,4294963142,4294966691,972,4871,9641,3630,4294962011,1046,1813,2962,11625,10411,4294966058,1271,4294966200
308411177,4294965277,8810,4294959796,5862,4294963072,4294966118,671,4779,9816,3547,4294963151,275,1853,2797,13319,10766,4294966660,1602,4294966242
308417177,4294965937,9284,4294959109,6267,4294962825,4294965205,286,4993,10208,3635,4294964590,4294966516,1846,2489,14800,10935,4294966745,1844,4294966155
308423177,4294967203,9952,4294958260,6741,4294962713,4294964332,4294967152,5436,10924,3880,4294966193,4294965545,1656,1914,15721,11328,4294967124,1879,4294966190
308429177,1694,10927,4294957250,7129,4294962828,4294963746,4294966591,6126,12058,4137,704,4294964692,1380,2177,17016,11642,429,1677,4294966322
308435177,1720,11939,4294956271,7891,4294963225,4294963339,4294965976,6823,13365,4394,2509,4294963914,920,2233,18202,11507,981,1734,4294966348
308441177,1722,13022,4294955185,8739,4294963957,4294963192,4294965181,7480,15158,4463,4215,4294963163,384,2416,19142,11220,1601,1665,4294966373
308447177,1702,13040,4294953608,9177,4294965320,4294962298,4294964489,8146,16954,4498,5589,4294962511,4294967135,2098,20076,10945,2147,1830,4294966372
308453177,1716,14242,4294952749,9827,294,4294961777,4294963805,8877,18534,4706,6578,4294962099,4294966731,1691,20291,10527,2159,1758,4294966444
308459177,1710,14777,4294951915,10413,2889,4294962932,4294963382,9355,19820,4679,7132,4294961987,4294966402,1633,19728,10265,1794,1087,4294966612
308465177,1695,14563,4294952007,10645,5285,4294964576,4294963298,9790,20705,4735,7236,4294962186,4294966239,1755,19341,9961,1900,582,4294966822
308471177,1722,13578,4294952208,10127,6829,4294965152,4294963638,10036,21133,4571,6948,4294962669,4294966244,1913,18822,9788,2081,23,4294967052
308477177,1706,13030,4294952755,9906,7974,4294965637,4294964275,10086,21166,4722,6278,4294963463,4294966218,2363,17895,9233,2188,4294966790,4294967257
308483177,1741,12318,4294953485,9498,8008,4294966582,4294965103,9914,20725,4853,5176,4294964468,4294966266,2232,17259,8784,2288,4294966807,4294967202
308489177,1709,11131,4294954197,8995,7101,157,4294965967,9685,20102,5111,3756,4294965621,4294966292,2019,16550,8392,2124,4294966783,4294967226
308495177,1720,9957,4294954965,8071,5385,700,4294966820,9416,19297,5414,1950,4294966932,4294966348,2003,15493,8314,1690,4294966689,101
308501177,1712,8952,4294955491,6984,3287,756,357,9071,18366,5554,4294967250,1005,4294966472,1964,14658,8368,1224,4294966522,188
308507177,1710,8243,4294955804,6305,1257,570,1117,8713,17291,5528,4294965319,2373,4294966527,1979,13443,8235,755,4294966273,252
308513177,1710,7866,4294956013,5801,4294966687,389,1770,8035,16180,5304,4294963511,3644,4294966544,1981,12249,8043,149,4294966144,377
308519177,1713,7740,4294956058,5612,4294965273,244,2272,7269,15022,5067,4294961972,4693,4294966569,1708,11390,7878,4294966931,4294966124,370
308525177,1170,7769,4294956071,5651,4294964543,252,2661,6430,13954,4823,4294960730,5355,4294966581,1473,10728,7748,4294966581,4294966096,317
308531177,853,7869,4294955962,5691,4294964257,479,2931,5657,12940,4571,4294959820,5577,4294966621,1285,10044,7610,4294966121,4294965996,260
308537177,175,8011,4294955960,5822,4294964392,924,3098,4987,11964,4493,4294959392,5396,4294966634,1454,9609,7638,4294965581,4294966046,244
308543177,4294966652,8039,4294955955,6064,4294964833,1462,3190,4441,11149,4426,4294959388,5023,4294966646,1501,9509,7633,4294965237,4294966183,230
308549177,4294966129,7962,4294956060,6122,4294965325,1856,3131,4053,10414,4386,4294959707,4489,4294966666,1561,9415,7720,4294965102,4294966254,203
308555177,4294965225,7842,4294956311,6152,4294965882,1966,2941,3680,9868,4460,4294960320,4011,4294966740,1726,9476,7958,4294965131,4294966471,181
308561177,4294964934,7764,4294956736,6341,4294966231,1905,2592,3329,9227,4385,4294961298,3353,4294966785,2061,9801,8277,4294965168,4294966650,147
308567177,4294964930,7902,4294957038,6393,4294966414,1522,2121,3004,8868,4536,4294962659,2601,4294966853,2599,10431,8690,4294965362,4294966843,185
308573177,4294964922,8441,4294957259,6733,4294966613,1252,1522,2943,8695,4606,4294964100,1837,4294966904,3115,11247,9236,4294965756,4294967045,198
308579177,4294964941,9121,4294957354,7346,4294966785,1185,784,2966,8714,4972,4294965465,1071,4294967018,3533,12109,9674,4294966260,50,185
308585177,4294964944,9831,4294957365,7835,4294966812,1234,4294967271,3304,9009,5343,4294966782,304,4294967232,3774,13145,10377,4294966877,238,162
308591177,4294964931,10795,4294957418,8524,4294966872,1263,4294966424,3787,9672,5835,744,4294966966,86,4221,14197,10963,137,725,177
308597177,4294964946,11787,4294957353,9205,4294966796,1226,4294965659,4444,10804,6245,2025,4294966330,120,4226,15091,11188,849,1234,147
308603177,4294964940,12825,4294957210,10048,4294966655,1130,4294964970,5124,12234,6535,3296,4294965725,58,4110,15820,11203,1554,1685,95
308609177,4294964942,13483,4294956977,10669,4294966637,1237,4294964478,5929,13754,6737,4291,4294965195,12,3880,16397,11047,2120,1981,29
308615177,4294964943,13780,4294956732,11159,4294966716,1575,4294964213,6694,15286,6775,4957,4294964871,4294967292,3594,16688,11060,2576,2063,14
308621177,4294964923,13785,4294956511,11232,4294966923,2113,4294964132,7337,16600,6730,5301,4294964751,15,3456,16774,11074,2883,1957,58
308627177,4294964944,13683,4294956503,11034,4294967198,2670,4294964202,7969,17663,6793,5252,4294964899,125,3382,16613,11012,2918,1714,103
308633177,4294964928,13293,4294956678,10665,225,3317,4294964378,8552,18314,6804,4988,4294965266,315,3212,16244,10748,3122,1488,190
308639177,4294964933,12686,4294956987,10143,524,3761,4294964724,8815,18640,6753,4427,4294965792,376,2773,15869,10281,3172,1333,159
308645177,4294964933,12002,4294957564,9696,773,4196,4294965168,9087,18830,6726,3668,4294966387,354,2642,15297,9939,3116,1052,157
308651177,4294964944,11018,4294958121,8912,1132,4336,4294965785,9311,18889,6674,2752,4294967194,272,2301,14942,9472,2782,823,105
308657177,4294964939,10142,4294958461,7827,1459,4495,4294966450,9362,18716,6702,1767,724,133,2075,14369,9069,2421,502,101
308663177,4294965189,9201,4294958946,6651,2068,4551,4294967086,9378,18168,6706,488,1348,4294967289,1807,13925,8711,2182,334,23
308669177,4294966685,8372,4294959130,5615,2529,4204,415,9310,17389,6437,4294966754,2469,4294967038,1355,13404,8559,1929,117,4294967275
308675177,601,8219,4294959314,5119,2876,3285,899,8805,16614,6244,4294965482,3569,4294966854,1248,13179,8327,1588,4294967130,4294967204
308681177,1049,8327,4294959319,4996,2723,2493,1317,7856,15774,6054,4294964066,4122,4294966764,1045,13102,8033,1244,4294966945,4294967116
308687177,1698,8847,4294959355,5064,2080,1764,1620,7414,14351,5719,4294962931,4335,4294966840,974,13019,7897,759,4294966542,4294967093
308693177,1724,9396,4294959203,5342,1122,1133,1891,6637,13167,5448,4294962412,4812,4294966921,1030,12914,7984,106,4294966037,4294967101
308699177,1709,9942,4294959146,5613,4294967257,524,2131,5564,12126,5089,4294961924,4245,4294967115,1395,12645,8042,4294966687,4294965601,4294967119
308705177,1716,10087,4294958603,5881,4294966019,5,2254,5743,10973,4829,4294961707,3774,91,1561,12631,8107,4294966061,4294965357,4294967074
308711177,1734,10180,4294958063,6442,4294965376,4294966770,2238,4953,10349,4541,4294962005,3719,270,1749,12540,8193,4294965580,4294965093,4294967080
308717177,1713,10255,4294957745,6900,4294964938,4294966459,2067,4878,9842,4267,4294962432,2899,548,1929,12810,8238,4294965250,4294965054,4294967119
308723177,1727,10388,4294957566,7339,4294964536,4294966032,1655,4775,9555,4151,4294962990,2203,794,2176,13132,8444,4294965133,4294965145,4294967134
308729177,1717,10387,4294957017,7676,4294964579,4294965367,1168,4862,9479,4277,4294964022,1189,960,2768,13531,8864,4294965131,4294965229,4294967295
308735177,1696,11232,4294956547,8059,4294965100,4294964536,524,5143,9867,4332,4294965060,152,1020,3295,14083,9191,4294965264,4294965390,134
308741177,1310,12263,4294955874,8583,4294966009,4294964431,4294967121,5698,9948,4526,4294966782,4294967209,856,3431,14519,9256,4294965438,4294965515,184
308747177,572,13067,4294955356,9213,4294967180,4294964644,4294966415,5956,10710,4457,1886,4294966299,694,3606,15084,9189,4294965871,4294966022,144
308753177,4294967290,13120,4294955022,9667,1167,4294964768,4294965841,6588,11587,4475,4096,4294965438,589,3549,15489,9143,4294966297,4294966532,93
308759177,4294966338,13497,4294954897,10294,2635,4294964638,4294965400,6810,12921,4528,5902,4294964501,450,3612,15589,9142,4294966564,4294966826,60
308765177,4294966134,13602,4294955099,10842,3942,4294965616,4294965200,7313,14289,4794,6832,4294963448,407,3771,15416,9221,4294966732,4294967172,7
308771177,4294966954,12749,4294955462,10886,4500,4294966754,4294965171,8007,15679,4970,6953,4294962811,431,3671,15365,9222,4294966924,217,4294967264
308777177,368,11828,4294955913,10407,4356,66,4294965314,8711,16669,5178,6599,4294962824,500,3497,15262,9209,4294967151,356,4294967241
308783177,962,11061,4294956500,9667,3722,307,4294965584,9114,17341,5197,6266,4294963088,339,3310,15114,9129,104,513,4294967254
308789177,1593,10567,4294956926,9038,2924,433,4294965891,9381,17894,5263,5640,4294963541,151,3120,14652,8880,325,698,4294967250
308795177,1584,10155,4294957200,8496,2171,713,4294966223,9657,18148,5371,4786,4294964159,44,2925,14143,8778,358,775,4294967270
308801177,822,9714,4294957504,7939,1553,1020,4294966722,9621,18097,5438,3764,4294964899,4294967096,2793,13665,8878,333,707,1
308807177,373,9338,4294957680,7233,1009,1228,4294967067,9401,17764,5592,2221,4294965767,4294966924,2687,13288,8989,364,593,56
308813177,4294967283,8894,4294957860,6517,819,1267,199,9128,17128,5496,461,4294966776,4294966778,2393,13098,9052,452,631,22
308819177,4294966876,8476,4294957909,5969,766,1075,635,8673,16191,5490,4294965915,676,4294966628,2023,12951,9158,599,675,11
308825177,4294967168,8363,4294957948,5617,733,708,1011,8060,15039,5280,4294964033,1885,4294966619,1847,12816,9442,726,687,29
308831177,498,8487,4294957883,5660,626,247,1300,7313,13865,5114,4294962325,2864,4294966772,1740,12843,9801,853,591,79
308837177,347,8747,4294957716,5762,467,4294967199,1491,6583,12720,5194,4294960926,3452,4294967062,1727,13240,10379,1031,490,80
308843177,4294967084,9041,4294957605,5843,345,4294966960,1622,5962,11638,5120,4294959850,3817,121,1829,13793,10910,1255,420,62
308849177,4294966837,9353,4294957311,6170,236,4294966756,1763,5400,10771,5189,4294959271,3782,454,1946,14567,11152,1433,451,58
308855177,4294966186,9505,4294957029,6510,106,4294966452,1855,4938,9865,5129,4294959260,3312,726,2129,15086,11309,1385,483,31
308861177,4294965170,9908,4294956767,6745,23,4294966078,1752,4739,9300,5151,4294959830,2603,809,2470,15344,11528,1306,463,89
308867177,4294965140,10267,4294956606,7147,93,4294965744,1373,4703,9149,5134,4294960975,1678,703,2668,15336,11392,1295,552,120
308873177,4294965726,10796,4294956612,7804,411,4294965412,826,4959,9385,5249,4294962576,618,494,2476,15275,11080,1333,800,103
308879177,4294966060,11416,4294956638,8498,869,4294965405,197,5259,9993,5278,4294964548,4294966778,233,2264,15529,10721,1390,919,1
308885177,4294966940,11917,4294956635,9233,1448,4294965442,4294966956,5648,10881,5333,4294966654,4294965528,4294967158,2484,15582,10298,1404,837,14
308891177,1164,12471,4294956608,9895,1892,4294965841,4294966568,6257,11918,5473,1528,4294964437,4294966729,2653,15587,10035,1274,762,35
308897177,1722,12504,4294956530,10111,2246,4294966460,4294966393,6719,13171,5560,3443,4294963413,4294966275,2821,15245,9768,1002,720,51
308903177,1719,12333,4294956510,10153,2597,4294967028,4294966349,7234,14317,5554,5094,4294962365,4294965864,2817,14440,9509,481,615,37
308909177,1724,11961,4294956674,10121,2714,177,4294966379,7767,15460,5687,6431,4294961521,4294965516,2676,13614,8960,4294967189,468,4294967285
308915177,1712,11578,4294956711,9785,2611,383,4294966477,8508,16506,5831,7305,4294961132,4294965306,2557,12623,8554,4294966664,267,4294967181
308921177,1619,11449,4294957109,9381,2449,575,4294966602,9042,17365,5983,7680,4294961404,4294965123,2618,12118,8026,4294966317,112,4294967057
308927177,601,11196,4294957304,9146,2275,938,4294966836,9401,18168,6094,7597,4294962012,4294964956,2611,11664,7589,4294965952,4294967229,4294966998
308933177,4294967052,10874,4294957465,8708,2047,1279,4294967192,9546,18747,6114,7067,4294962801,4294964841,2913,11269,7149,4294965624,4294966953,4294967019
308939177,4294965932,10461,4294957733,8099,1811,1559,313,9324,19151,6005,5948,4294963646,4294964750,2798,10950,6961,4294965286,4294966761,4294966921
308945177,4294965540,10059,4294957860,7599,1538,1648,677,8688,19077,5936,4423,4294963944,4294964744,2895,10580,6749,4294964980,4294966558,4294966887
308951177,4294966035,9603,4294958122,7054,1301,1482,921,8478,18597,5688,2503,4294964729,4294964943,3056,10378,6613,4294964813,4294966304,4294966949
308957177,4294966327,9347,4294958208,6930,981,1175,1163,7984,17741,5239,175,4294966538,4294965327,3065,10267,6598,4294964794,4294966223,4294966993
308963177,4294966607,9301,4294958288,7035,565,825,1338,7042,16665,4939,4294964838,1044,4294965850,2919,10316,6623,4294964883,4294966316,4294967007
308969177,173,9376,4294958231,7231,151,539,1483,6024,15346,4523,4294962202,2421,4294966516,2703,10448,6562,4294965067,4294966507,4294967021
308975177,862,9630,4294958026,7647,4294967156,411,1600,5094,13949,4291,4294959993,3361,4294967155,2423,10546,6542,4294965301,4294966819,4294967081
308981177,1178,9724,4294957828,7914,4294966971,529,1714,4351,12564,4082,4294958456,3984,416,2502,10647,6956,4294965434,4294967124,4294967162
308987177,1700,9844,4294957589,8048,4294966951,680,1862,3698,11373,4037,4294957613,4305,859,2462,10978,7588,4294965614,186,4294967257
308993177,1724,9993,4294957364,8225,4294967003,911,1907,3344,10408,4216,4294957416,4398,1282,2409,11505,8353,4294965942,575,15
308999177,837,9835,4294957228,8349,4294967011,959,1809,3168,9678,4461,4294957775,4192,1559,2151,12300,8914,4294966335,980,4294967268
309005177,4294967058,9969,4294957105,8490,4294966977,869,1517,3076,9276,4792,4294958773,3641,1762,2119,13193,9601,4294966819,1271,4294967209
309011177,4294966204,10294,4294957182,8799,4294966966,680,985,3235,9303,5260,4294960373,2856,1802,2287,14106,10432,63,1484,4294967271
309017177,4294965038,10904,4294957249,9083,4294966925,570,398,3373,9606,5552,4294962604,1675,1671,2553,14981,11305,552,1641,42
309023177,4294964931,11602,4294957149,9616,4294966836,466,4294967100,3865,10510,5955,4294965126,320,1452,2809,15853,11833,1137,1834,71
309029177,4294964937,12303,4294956924,10085,4294966748,503,4294966561,4409,11677,6148,455,4294966389,1133,2898,16772,11917,1689,2108,16
309035177,4294964948,12952,4294956826,10446,4294966680,702,4294966121,5000,13061,6102,3006,4294965297,762,2698,17377,11880,2202,2278,4294967244
309041177,4294964951,13138,4294956807,10665,4294966754,985,4294965749,5672,14405,6006,5192,4294964269,568,2591,17625,12011,2625,2354,4294967232
309047177,4294964941,13132,4294956880,10645,4294966930,1292,4294965570,6420,15601,6097,6964,4294963235,467,2758,17490,11891,2752,2201,4294967270
309053177,4294964937,12841,4294957057,10537,4294967190,1629,4294965529,6929,16508,6225,8624,4294962296,331,2999,17132,11736,2746,2012,10
309059177,4294964929,12386,4294957217,10086,117,1863,4294965629,7930,17551,6356,9918,4294961605,268,3041,16832,11281,2692,1828,22
309065177,4294964953,11850,4294957466,9533,301,2043,4294965791,8777,18472,6491,10407,4294961949,159,3122,16525,10661,2555,1557,64
309071177,4294964939,11417,4294957768,8851,401,2118,4294966021,9137,19136,6554,10210,4294962705,4294967175,2776,16073,10091,2216,1168,127
309077177,4294965028,10967,4294957812,8256,472,2175,4294966402,9476,19522,6588,9394,4294963528,4294966969,2552,15255,9658,1621,601,191
309083177,4294965309,10513,4294957899,7566,511,2118,4294966892,9656,19595,6660,7963,4294964500,4294966819,2364,14504,9336,1107,205,216
309089177,4294966112,9916,4294958022,6822,513,2205,197,9823,19410,6533,6129,4294965684,4294966715,2236,13964,8958,637,4294967079,239
309095177,4294966579,9236,4294958053,5978,476,1889,729,9666,18906,6443,3979,4294967026,4294966672,2172,13657,8581,302,4294966747,224
309101177,4294966685,8803,4294958225,5314,396,1405,1169,9402,17971,6104,1753,1208,4294966753,2120,13538,8272,87,4294966493,216
309107177,59,8625,4294958258,5130,89,835,1501,8772,16808,5845,4294966724,2754,4294966966,1912,13487,8021,4294967192,4294966358,184
309113177,881,8725,4294958325,5158,4294966840,234,1701,7866,15406,5497,4294964438,4164,4294967261,1702,13516,7723,4294966912,4294966223,89
309119177,1340,8896,4294958101,5267,4294966212,4294966889,1813,6978,14070,5150,4294962330,5222,344,1573,13249,7677,4294966548,4294966032,71
309125177,1722,9141,4294957879,5479,4294965793,4294966374,1909,6085,12705,4819,4294960600,5770,711,1369,13009,7738,4294966157,4294965907,88
309131177,1737,9281,4294957522,5761,4294965716,4294965968,1947,5327,11524,4536,4294959423,5797,1013,1248,12770,7641,4294965731,4294965763,56
