t_us,ecg_corr,ax0,ay0,az0,gx0,gy0,gz0,ax1,ay1,az1,gx1,gy1,gz1,ax2,ay2,az2,gx2,gy2,gz2
387949177,761,15862,4294963307,4294962367,311,315,169,15124,6796,4294964255,4294965945,102,482,1380,15449,6151,163,242,62
387955177,61,15849,4294963303,4294962333,293,344,178,15070,6707,4294964219,4294966004,135,506,1331,15464,6131,156,240,42
387961177,4294966362,15813,4294963324,4294962324,278,340,183,14967,6676,4294964108,4294965980,181,521,1358,15472,6096,149,241,38
387967177,342,15829,4294963279,4294962339,280,356,211,14949,6692,4294964044,4294966059,144,432,1369,15428,6152,174,254,25
387973177,357,15801,4294963282,4294962277,280,337,224,14928,6699,4294964176,4294966061,172,367,1339,15486,6109,169,252,36
387979177,4294966136,15788,4294963217,4294962287,274,351,227,15100,6751,4294964271,4294966016,152,306,1348,15496,6143,166,260,21
387985177,4294966848,15809,4294963246,4294962324,278,352,232,15131,6827,4294964300,4294966019,145,241,1336,15453,6120,161,252,34
387991177,494,15779,4294963249,4294962315,292,346,252,15013,6919,4294964287,4294966186,127,167,1353,15428,6196,159,242,43
387997177,4294966501,15812,4294963270,4294962389,248,328,223,15124,7036,4294964150,4294966279,131,94,1347,15433,6140,162,251,53
388003177,4294966464,15788,4294963249,4294962378,274,321,237,15103,7133,4294964263,4294966375,55,48,1338,15453,6108,168,222,41
388009177,751,15755,4294963254,4294962467,295,311,231,15120,7183,4294964268,4294966443,4294967243,12,1341,15388,6174,141,224,53
388015177,212,15765,4294963284,4294962345,287,315,209,15066,7272,4294964214,4294966567,4294967213,4294967287,1329,15435,6119,142,208,47
388021177,4294966569,15800,4294963229,4294962353,291,299,200,15030,7246,4294964249,4294966686,4294967198,4294967243,1367,15414,6047,164,202,56
388027177,623,15748,4294963250,4294962327,280,296,225,14960,7111,4294964159,4294966793,4294967099,4294967232,1378,15414,6123,135,194,66
388033177,713,15779,4294963259,4294962324,289,287,203,15088,6944,4294964213,4294966805,4294967019,4294967259,1379,15440,6187,157,215,43
388039177,4294966477,15748,4294963241,4294962425,278,290,198,15048,6800,4294964191,4294966805,4294966996,4294967269,1335,15477,6103,147,197,54
388045177,4294967174,15813,4294963295,4294962388,293,264,235,14981,6765,4294964195,4294966870,4294966946,4294967208,1361,15460,6135,177,204,47
388051177,801,15819,4294963244,4294962398,297,248,220,15048,6688,4294964197,4294966835,4294966917,4294967156,1383,15501,6157,155,196,53
388057177,4294966810,15865,4294963300,4294962390,293,217,251,15096,6719,4294964109,4294966875,4294966882,4294967137,1335,15419,6050,145,202,53
388063177,4294966692,15873,4294963338,4294962325,277,209,225,15167,6729,4294964078,4294966915,4294966800,4294967076,1363,15476,6159,144,215,44
388069177,788,15848,4294963342,4294962422,284,212,229,15187,6590,4294964190,4294966920,4294966713,4294967082,1368,15456,6085,171,190,35
388075177,4294967254,15862,4294963338,4294962359,300,202,241,15137,6507,4294964159,4294966958,4294966683,4294967086,1340,15487,6056,157,203,29
388081177,4294965986,15826,4294963280,4294962273,288,207,243,15199,6526,4294964130,4294966947,4294966697,4294967101,1338,15484,6120,144,203,54
388087177,4294966976,15861,4294963290,4294962321,280,221,250,15195,6517,4294964113,4294966978,4294966590,4294967076,1375,15411,6123,133,196,36
388093177,4294966958,15799,4294963314,4294962406,273,193,239,15255,6469,4294964164,4294967027,4294966558,4294966994,1339,15393,6131,129,208,45
388099177,4294966176,15832,4294963284,4294962354,279,221,225,15270,6520,4294964293,4294967010,4294966565,4294966935,1307,15448,6148,132,211,59
388105177,750,15811,4294963311,4294962400,264,207,238,15292,6605,4294964358,4294966985,4294966440,4294966830,1391,15445,6079,128,212,20
388111177,1723,15832,4294963240,4294962331,251,215,253,15277,6777,4294964366,4294966954,4294966425,4294966756,1368,15392,6065,124,220,34
388117177,1110,15790,4294963296,4294962469,253,220,241,15162,6940,4294964491,4294967198,4294966456,4294966637,1335,15415,6074,152,214,49
388123177,250,15789,4294963235,4294962424,254,222,235,15040,6976,4294964248,7,4294966431,4294966563,1319,15464,6070,148,218,67
388129177,796,15812,4294963291,4294962420,256,229,238,15108,6999,4294964289,6,4294966295,4294966610,1389,15455,6146,147,206,55
388135177,4294966675,15786,4294963332,4294962400,289,276,243,15278,6986,4294964436,4294967251,4294966205,4294966697,1378,15466,6118,160,208,56
388141177,4294965319,15818,4294963359,4294962473,328,265,235,15152,6918,4294964330,4294967216,4294966214,4294966755,1390,15506,6044,160,252,61
388147177,4294966741,15828,4294963380,4294962503,371,273,227,15215,6813,4294964210,4294967248,4294966193,4294966747,1306,15503,6104,163,229,54
388153177,4294967161,15763,4294963413,4294962433,413,287,248,15159,6872,4294964036,17,4294966158,4294966686,1320,15482,6072,163,220,77
388159177,4294966028,15750,4294963414,4294962408,444,303,228,15095,6888,4294964082,108,4294966100,4294966634,1370,15527,6098,141,212,57
388165177,4294967006,15737,4294963444,4294962425,431,324,242,15138,6917,4294964075,242,4294965985,4294966581,1375,15460,6093,145,220,83
388171177,874,15759,4294963431,4294962396,399,299,260,15062,7015,4294964047,344,4294965995,4294966465,1370,15518,6065,143,208,77
388177177,4294966954,15848,4294963385,4294962426,341,285,278,15003,7236,4294963938,337,4294965985,4294966371,1377,15464,6119,136,233,74
388183177,4294966773,15858,4294963352,4294962407,260,281,304,14996,7489,4294964168,348,4294965847,4294966258,1290,15448,6044,132,229,61
388189177,842,15892,4294963329,4294962516,196,264,275,15146,7688,4294964037,293,4294965735,4294966199,1350,15418,6135,146,218,78
388195177,185,15929,4294963332,4294962460,132,230,289,14985,7550,4294964252,594,4294965870,4294966046,1341,15451,6183,157,241,82
388201177,4294966448,15894,4294963327,4294962586,121,235,284,14917,7637,4294964076,467,4294965700,4294965979,1345,15429,6148,151,245,71
388207177,426,15983,4294963352,4294962589,132,233,244,15022,7576,4294963933,150,4294965525,4294966009,1338,15462,6160,152,251,94
388213177,523,15924,4294963352,4294962472,156,248,230,15028,7200,4294963801,4294967168,4294965503,4294966053,1322,15413,6145,158,267,94
388219177,4294966258,15880,4294963295,4294962385,251,260,187,15016,6834,4294963728,4294967067,4294965393,4294966126,1325,15417,6172,170,248,102
388225177,4294966980,15867,4294963238,4294962458,294,254,156,15073,6677,4294963550,4294967051,4294965294,4294966157,1366,15505,6148,153,273,114
388231177,747,15826,4294963236,4294962380,340,257,154,15195,6571,4294963175,4294966863,4294965276,4294966178,1384,15424,6102,155,273,98
388237177,4294966740,15801,4294963261,4294962311,341,277,172,15231,6675,4294963277,4294966846,4294965030,4294966099,1366,15518,6144,167,265,86
388243177,4294966569,15827,4294963247,4294962328,364,287,196,15447,6649,4294963077,4294966625,4294964708,4294966042,1348,15435,6130,167,269,95
388249177,716,15914,4294963275,4294962390,386,288,223,15565,6379,4294963051,4294966413,4294964527,4294965922,1418,15471,6114,165,273,102
388255177,47,15939,4294963294,4294962402,424,298,258,15805,6405,4294963024,4294966432,4294964196,4294965699,1390,15434,6106,142,278,97
388261177,4294966259,16023,4294963364,4294962358,460,283,228,15915,6340,4294962956,4294966470,4294963903,4294965456,1346,15461,6105,163,288,86
388267177,281,16061,4294963362,4294962448,510,322,218,15853,6374,4294962935,4294966537,4294963655,4294965191,1367,15508,6101,158,271,89
388273177,500,16034,4294963349,4294962417,572,350,214,15697,6611,4294962861,4294966592,4294963470,4294964994,1422,15467,6101,150,262,107
388279177,4294966417,16005,4294963310,4294962315,675,383,198,15482,6707,4294962668,4294966565,4294963178,4294964894,1328,15463,6131,173,295,65
388285177,4294967248,15924,4294963325,4294962311,748,402,209,15019,6868,4294962342,4294966482,4294962618,4294964932,1305,15440,6085,171,269,83
388291177,954,15922,4294963339,4294962368,828,430,221,15321,6822,4294962730,4294966091,4294962408,4294965121,1457,15478,6068,175,234,97
388297177,4294966912,15846,4294963289,4294962302,893,447,250,15023,6642,4294962397,4294965619,4294962502,4294965330,1479,15477,5965,180,251,104
388303177,4294966681,15797,4294963298,4294962255,950,443,306,14926,6717,4294962385,4294965339,4294962131,4294965465,1359,15547,6013,154,316,93
388309177,799,15721,4294963346,4294962223,942,497,335,15019,6844,4294962308,4294964818,4294962132,4294965569,1315,15457,6083,190,307,90
388315177,45,15720,4294963336,4294962251,939,523,351,14827,6839,4294962402,4294964622,4294961917,4294965613,1378,15449,6107,188,263,94
388321177,4294966201,15703,4294963350,4294962267,915,564,370,14934,6812,4294962333,4294964388,4294961656,4294965693,1344,15439,6159,198,288,86
388327177,245,15660,4294963373,4294962316,844,586,419,14712,6546,4294962058,4294964005,4294961824,4294965783,1371,15416,6193,170,288,73
388333177,383,15643,4294963389,4294962346,753,636,418,14583,6258,4294961757,4294963437,4294961854,4294965999,1454,15408,6162,153,254,99
388339177,4294966145,15583,4294963356,4294962286,683,654,413,14153,6157,4294961376,4294963120,4294961572,4294966128,1392,15407,6133,137,283,93
388345177,4294966854,15607,4294963363,4294962344,626,689,412,14494,6471,4294961333,4294962874,4294961354,4294966254,1382,15424,6159,118,303,76
388351177,595,15589,4294963407,4294962348,598,696,379,14166,6389,4294961536,4294962386,4294961956,4294966355,1324,15396,6095,140,323,106
388357177,4294966650,15525,4294963420,4294962300,605,712,373,14415,6535,4294961515,4294962141,4294961747,4294966504,1293,15441,6118,146,305,111
388363177,4294966505,15538,4294963428,4294962375,636,699,306,14468,6472,4294961509,4294961992,4294962095,4294966626,1314,15424,6119,156,303,121
388369177,697,15504,4294963420,4294962450,702,661,256,14488,6438,4294961715,4294961966,4294962379,4294966702,1374,15445,6033,156,279,133
388375177,21,15524,4294963480,4294962438,760,617,228,14563,6424,4294961591,4294961813,4294962460,4294966797,1379,15459,6091,143,299,136
388381177,4294966276,15495,4294963512,4294962428,791,563,213,14188,6408,4294961474,4294962022,4294962236,4294966766,1357,15469,6057,145,291,149
388387177,373,15535,4294963504,4294962390,814,503,196,14895,7108,4294961137,4294962218,4294961649,4294966636,1314,15499,6123,124,305,137
388393177,563,15564,4294963587,4294962465,804,437,149,15293,7736,4294961053,4294961686,4294962427,4294966476,1422,15430,6131,128,283,135
388399177,4294966382,15559,4294963579,4294962479,716,389,149,14672,8104,4294961251,4294961347,4294963302,4294966269,1378,15424,6107,130,277,139
388405177,4294967172,15610,4294963585,4294962451,630,349,104,14298,9462,4294960957,4294961528,4294962999,4294966059,1391,15445,6037,144,286,131
388411177,889,15650,4294963587,4294962400,486,293,118,14999,10236,4294961516,4294960850,4294963842,4294966104,1401,15485,6054,148,274,137
388417177,4294966796,15706,4294963538,4294962452,307,200,82,14000,10174,4294961476,4294960500,4294964650,4294966258,1386,15473,6069,139,260,123
388423177,4294966594,15793,4294963574,4294962520,148,193,44,14339,10611,4294961342,4294960659,4294963506,4294966606,1417,15453,6084,165,256,131
388429177,828,15831,4294963527,4294962474,47,138,4294967277,14155,10122,4294962298,4294959778,4294964609,4294967140,1354,15443,6092,177,238,131
388435177,99,15844,4294963453,4294962545,4294967242,82,4294967214,13524,9590,4294962631,4294959907,4294964656,353,1346,15470,6065,177,210,109
388441177,4294966262,15871,4294963378,4294962492,4294967161,51,4294967162,14048,9277,4294962944,4294958544,4294965182,1322,1385,15486,6077,186,187,91
388447177,265,15809,4294963280,4294962619,4294967137,41,4294967112,12974,8339,4294962884,4294957694,4294965727,2353,1374,15520,6093,184,186,82
388453177,363,15859,4294963290,4294962630,4294967140,43,4294967083,12788,7771,4294962981,4294956245,4294965891,3574,1376,15424,6084,195,170,90
388459177,4294966092,15828,4294963298,4294962561,4294967178,43,4294967056,12854,7199,4294962878,4294955334,4294966060,4510,1382,15475,6039,186,147,90
388465177,4294966820,15868,4294963267,4294962597,4294967246,61,4294967047,12861,6122,4294963384,4294954696,4294966394,5332,1389,15475,6080,199,116,97
388471177,534,15873,4294963257,4294962603,57,82,4294967012,12287,5474,4294963294,4294954824,4294965877,5846,1399,15453,6063,210,119,62
388477177,4294966528,15897,4294963289,4294962630,175,115,4294967007,12480,4715,4294963365,4294954815,4294965046,6248,1368,15473,6037,185,124,75
388483177,4294966451,15890,4294963335,4294962570,246,197,4294967034,12944,4076,4294963618,4294955423,4294964914,6305,1372,15470,6077,185,121,72
388489177,791,15878,4294963420,4294962573,314,263,4294967060,12784,3844,4294963776,4294956027,4294964586,6253,1401,15453,6062,179,104,53
388495177,224,15873,4294963415,4294962664,350,348,4294967091,12954,3596,4294964108,4294956611,4294963736,6225,1402,15472,6048,178,90,32
388501177,4294966505,15903,4294963445,4294962560,343,424,4294967131,13678,3576,4294964673,4294957463,4294963647,5984,1456,15474,6086,189,109,32
388507177,683,15927,4294963494,4294962606,276,474,4294967176,13735,3736,4294964867,4294958421,4294964119,5622,1427,15455,6086,185,129,48
388513177,940,16012,4294963453,4294962643,184,542,4294967250,13873,3906,4294965295,4294959217,4294964354,5319,1408,15484,6121,195,115,25
388519177,4294966756,16019,4294963410,4294962678,75,541,4294967273,13841,3941,4294965233,4294960002,4294964456,5054,1414,15459,6130,189,124,25
388525177,175,16039,4294963388,4294962808,4294967257,589,62,14060,4250,4294965044,4294960933,4294964020,4886,1389,15498,6058,181,102,11
388531177,1114,15992,4294963289,4294962665,4294967130,605,86,14476,4706,4294964815,4294961317,4294964377,4874,1390,15426,6070,171,108,23
388537177,4294966955,15996,4294963204,4294962732,4294967009,609,136,14908,5126,4294964244,4294961026,4294964841,5001,1404,15536,5994,168,112,12
388543177,4294966694,16055,4294963235,4294962769,4294966927,597,160,15116,5357,4294964256,4294960224,4294966170,5096,1378,15424,6047,165,134,16
388549177,847,16108,4294963165,4294962791,4294966868,569,201,14418,5312,4294964246,4294959895,4294966512,5067,1412,15458,5999,175,134,9
388555177,4294967283,16189,4294963195,4294962670,4294966850,529,222,14810,5972,4294964462,4294959874,4294966014,4718,1385,15483,6055,190,129,19
388561177,4294966183,16570,4294963307,4294962814,4294966707,624,238,14672,6579,4294964642,4294959792,4294966175,4163,1422,15449,6092,195,140,4294967295
388567177,445,16045,4294962929,4294962877,4294966847,1327,296,14589,7244,4294964609,4294959753,4294965859,3761,1381,15491,6024,185,142,9
388573177,720,16062,4294963070,4294962798,168,883,203,14963,7708,4294964959,4294959719,4294965941,3701,1378,15490,6035,182,120,4294967294
388579177,4294966563,16453,4294963168,4294962855,225,949,219,14896,8109,4294965259,4294960188,4294965422,3768,1408,15477,6061,173,118,4294967287
388585177,66,16241,4294963197,4294962847,207,1268,268,15475,8497,4294965926,4294961010,4294964911,3901,1405,15504,6062,172,101,4294967283
388591177,1048,16043,4294963268,4294962578,229,1135,278,15674,8633,4294966302,4294961891,4294965119,4007,1361,15470,6061,154,116,4294967285
388597177,4294966801,16226,4294963303,4294962587,236,945,326,15613,8735,4294966366,4294962600,4294965365,4193,1435,15460,6027,164,125,4294967276
388603177,4294966446,16244,4294963339,4294962523,124,977,343,15262,8657,4294966080,4294962787,4294965624,4455,1377,15507,6049,184,126,4294967282
388609177,588,16183,4294963374,4294962539,149,1034,383,14767,8750,4294965625,4294962509,4294965449,4816,1383,15451,6070,149,134,26
388615177,4294967076,16143,4294963414,4294962573,91,964,402,14177,8792,4294965292,4294961719,4294965285,5267,1370,15449,6114,168,162,10
388621177,4294966030,16104,4294963462,4294962527,26,1018,432,13825,8729,4294964871,4294960932,4294964413,5868,1403,15444,5996,191,133,9
388627177,282,16006,4294963448,4294962531,4294967285,951,445,14259,8622,4294964658,4294959837,4294964256,6479,1429,15501,6058,176,172,4294967292
388633177,591,15950,4294963420,4294962570,4294967252,855,465,14141,8252,4294964571,4294958864,4294964016,7120,1428,15480,6003,138,151,4294967289
388639177,4294966456,15973,4294963377,4294962726,4294967274,866,545,14324,7630,4294964936,4294957959,4294964157,7728,1353,15466,6043,123,155,4294967291
388645177,32,15915,4294963411,4294962712,4294967289,849,549,14659,6905,4294965184,4294957358,4294963799,8293,1394,15475,6136,158,192,1
388651177,1131,15987,4294963419,4294962736,38,882,598,14859,5965,4294965527,4294957031,4294964055,8786,1418,15485,6104,163,215,4294967294
388657177,4294967010,15932,4294963471,4294962670,24,957,620,15199,5227,4294965464,4294957162,4294964170,9083,1428,15516,6104,160,208,4294967268
388663177,4294966788,15920,4294963490,4294962714,4294967237,958,622,15524,4694,4294965448,4294957312,4294965015,9210,1430,15455,6053,136,220,4294967275
388669177,985,15889,4294963404,4294962731,4294967130,978,610,15045,4282,4294965295,4294957832,4294965430,9092,1403,15482,6058,125,235,4294967272
388675177,181,15857,4294963445,4294962809,4294966958,955,615,15034,4171,4294965106,4294958458,4294965449,8926,1378,15544,6028,127,212,4294967282
388681177,4294966319,15887,4294963377,4294962834,4294966786,971,609,15186,4085,4294965070,4294959041,4294966075,8629,1390,15471,6069,94,214,4294967262
388687177,472,15931,4294963334,4294962700,4294966674,1029,613,15149,4025,4294964802,4294959514,4294966539,8297,1404,15498,6096,82,237,4294967275
388693177,676,15841,4294963326,4294962726,4294966573,1013,589,15110,4070,4294964761,4294959636,4294966983,8088,1399,15431,6099,94,232,4294967262
388699177,4294966421,15931,4294963266,4294962722,4294966513,924,568,15168,4073,4294964744,4294959557,128,7863,1382,15491,6049,96,240,4294967283
388705177,4294967166,15973,4294963268,4294962721,4294966506,964,577,17021,3931,4294965740,4294959745,4496,7092,1395,15405,6104,106,259,4294967264
388711177,792,15901,4294963289,4294962712,4294966564,943,540,14378,3814,4294964796,4294960677,5035,6572,1314,15421,6076,100,284,4294967276
388717177,4294966570,15949,4294963303,4294962646,4294966615,836,519,15003,4601,4294964559,4294960321,547,7213,1298,15405,6110,102,290,4294967272
388723177,4294966267,15991,4294963290,4294962640,4294966746,803,507,16148,4998,4294964979,4294959421,846,7333,1328,15454,6160,93,260,10
388729177,466,15941,4294963352,4294962589,4294966836,662,526,15830,4989,4294965365,4294959393,678,7182,1415,15442,6086,87,259,0
388735177,4294967023,16048,4294963373,4294962588,4294966955,513,513,16062,5142,4294965410,4294959401,382,7152,1417,15444,6111,74,275,4294967288
388741177,4294965942,16357,4294963346,4294962670,4294967065,654,527,16336,5141,4294965487,4294959598,456,7097,1379,15457,6149,67,276,5
388747177,109,16239,4294963492,4294962596,4294967144,922,544,16420,5283,4294965507,4294959813,735,6982,1341,15409,6067,71,313,30
388753177,362,16088,4294963541,4294962555,4294967131,813,561,16325,5294,4294965398,4294959900,614,6893,1348,15433,6068,84,303,12
388759177,4294966039,16156,4294963494,4294962590,4294967147,600,583,16355,5225,4294965373,4294960099,227,6800,1403,15473,6069,113,264,13
388765177,4294966611,16173,4294963433,4294962568,11,549,613,16493,5254,4294965514,4294960335,4294967103,6709,1385,15511,6044,91,246,25
388771177,38,16230,4294963446,4294962576,252,593,642,16527,5310,4294965575,4294960583,4294967116,6545,1381,15470,6100,97,258,18
388777177,4294965937,16146,4294963492,4294962489,430,561,697,16578,5389,4294965521,4294960859,4294966705,6409,1356,15420,6081,89,274,20
388783177,4294966477,16166,4294963548,4294962452,487,475,727,16939,5419,4294965527,4294960992,4294966792,6252,1355,15430,6026,109,275,27
388789177,1726,16100,4294963602,4294962516,526,394,744,16697,5402,4294965333,4294961103,4294966627,6082,1341,15436,6127,101,239,49
388795177,1737,16125,4294963582,4294962436,429,311,763,16772,5558,4294965243,4294961016,4294966419,5908,1379,15455,6039,97,225,29
388801177,757,16066,4294963586,4294962496,362,227,812,17261,5443,4294965056,4294960718,4294966716,5750,1363,15435,6092,111,210,38
388807177,1448,16044,4294963566,4294962486,269,145,812,17186,5334,4294965028,4294960779,344,5456,1373,15492,6077,122,213,48
388813177,686,16049,4294963582,4294962521,234,107,828,17061,5237,4294965062,4294960737,502,5248,1391,15479,6112,125,215,50
388819177,4294965604,16006,4294963607,4294962508,257,83,807,16888,5186,4294964845,4294960754,364,5007,1370,15478,6110,129,219,36
388825177,4294965931,15986,4294963618,4294962471,288,29,779,16846,4982,4294964810,4294960783,240,4690,1403,15492,6056,124,179,24
388831177,4294966967,15941,4294963599,4294962450,336,4294967290,794,16701,4769,4294964700,4294961063,40,4415,1388,15455,6136,100,190,34
388837177,4294965785,15837,4294963680,4294962488,372,4294967276,760,16723,4608,4294964465,4294961550,4294966727,4089,1360,15421,6065,102,188,24
388843177,4294965932,15851,4294963626,4294962408,392,4294967281,777,16742,4645,4294964324,4294962111,4294966497,3693,1414,15420,6134,96,215,40
388849177,514,15808,4294963663,4294962330,418,4294967248,762,16965,4619,4294964298,4294962584,4294966565,3353,1348,15441,6077,95,209,12
388855177,21,15750,4294963601,4294962307,438,4294967220,741,16809,4510,4294964262,4294962967,4294966556,2922,1370,15454,6054,118,224,44
388861177,4294966354,15743,4294963619,4294962333,460,4294967197,732,16681,4411,4294964278,4294963321,4294966304,2623,1348,15449,6138,123,242,45
388867177,392,15722,4294963589,4294962363,471,4294967142,710,16801,4483,4294964253,4294963711,4294966408,2220,1375,15452,6117,118,245,62
388873177,434,15747,4294963600,4294962400,486,4294967124,678,16686,4528,4294964386,4294963970,4294966511,1849,1402,15467,6126,96,252,60
388879177,4294966111,15658,4294963586,4294962398,480,4294967119,600,16627,4469,4294964501,4294964367,4294966445,1590,1372,15459,6094,100,248,69
388885177,4294966956,15649,4294963577,4294962300,497,4294967120,554,16534,4531,4294964616,4294964837,4294966311,1310,1386,15458,6123,91,277,40
388891177,793,15629,4294963583,4294962387,543,4294967092,482,16419,4516,4294964559,4294965342,4294966131,1040,1362,15502,6076,115,286,40
388897177,4294966776,15688,4294963608,4294962462,581,4294967104,424,16478,4596,4294964579,4294965885,4294965985,735,1368,15494,6156,116,280,35
388903177,4294966662,15698,4294963648,4294962425,646,4294967131,344,16503,4764,4294964640,4294966376,4294965971,431,1384,15432,6047,114,338,76
388909177,1013,15601,4294963557,4294962481,691,4294967173,286,16488,4841,4294964760,4294966779,4294965911,243,1350,15505,6043,155,329,57
388915177,354,15623,4294963601,4294962384,696,4294967222,240,16496,4971,4294964884,4294967111,4294965793,4294967272,1335,15466,6076,133,311,65
388921177,4294966567,15531,4294963559,4294962410,670,3,212,16591,5002,4294964945,59,4294965682,4294967082,1370,15496,6071,145,270,72
388927177,713,15529,4294963591,4294962387,666,62,193,16572,4956,4294965007,215,4294965559,4294966916,1348,15423,5979,113,279,61
388933177,901,15553,4294963574,4294962399,606,34,182,16769,4853,4294965112,382,4294965519,4294966775,1358,15426,6122,100,258,64
388939177,4294966614,15603,4294963627,4294962414,627,10,151,16674,4755,4294965252,589,4294965530,4294966646,1332,15428,6135,105,262,60
388945177,65,15671,4294963639,4294962432,635,54,125,16604,4707,4294965345,833,4294965465,4294966548,1334,15445,6049,110,267,69
388951177,1108,15698,4294963665,4294962498,696,72,48,16638,4667,4294965394,1119,4294965513,4294966440,1338,15406,6145,117,256,91
388957177,4294966998,15678,4294963723,4294962527,722,72,4294967294,16602,4750,4294965437,1365,4294965581,4294966304,1387,15395,6111,128,238,62
388963177,4294966711,15731,4294963651,4294962550,754,35,4294967219,16422,4745,4294965355,1598,4294965739,4294966177,1359,15444,6062,139,265,71
388969177,854,15720,4294963698,4294962533,742,4294967249,4294967189,16313,4696,4294965379,1750,4294965801,4294966075,1374,15467,6064,137,229,79
388975177,100,15809,4294963695,4294962533,733,4294967166,4294967131,16298,4688,4294965150,1847,4294965974,4294965998,1304,15481,6107,139,219,75
388981177,4294966304,15851,4294963635,4294962572,695,4294967114,4294967124,16133,4663,4294965135,1834,4294966241,4294965931,1364,15495,6057,146,231,74
388987177,469,15876,4294963510,4294962600,595,4294967115,4294967108,15965,4566,4294965083,1826,4294966364,4294965844,1377,15551,6011,134,241,78
388993177,684,15955,4294963512,4294962613,458,4294967061,4294967095,15950,4497,4294965046,1763,4294966430,4294965745,1410,15495,6085,141,231,75
388999177,4294966413,15941,4294963520,4294962618,327,4294967044,4294967104,15867,4539,4294964976,1852,4294966576,4294965652,1362,15431,6102,158,211,74
389005177,4294967131,15928,4294963522,4294962645,193,4294967027,4294967077,15920,4549,4294964909,1998,4294966761,4294965542,1415,15493,5988,164,223,76
389011177,838,15978,4294963527,4294962695,154,4294967029,4294967015,15872,4605,4294964893,2145,4294967024,4294965462,1381,15475,6039,168,211,61
389017177,4294966743,15970,4294963481,4294962645,154,4294967054,4294967005,15915,4654,4294964863,2214,1,4294965434,1353,15461,6059,161,233,77
389023177,4294966525,15986,4294963451,4294962675,177,4294967057,4294966996,15835,4716,4294964862,2201,276,4294965426,1332,15460,6086,164,197,73
389029177,724,16023,4294963481,4294962777,275,4294967099,4294966975,15800,4749,4294964895,2145,472,4294965432,1357,15509,6094,156,195,50
389035177,4294967291,15990,4294963476,4294962716,336,4294967168,4294966952,15719,4865,4294964842,2070,611,4294965403,1433,15492,6073,151,181,53
389041177,4294966227,16033,4294963453,4294962725,381,4294967177,4294966946,15694,4935,4294964877,2058,771,4294965407,1327,15551,6063,174,175,64
389047177,429,16005,4294963529,4294962648,446,4294967148,4294966948,15633,4972,4294964742,2068,955,4294965427,1317,15575,5978,191,144,60
389053177,658,16003,4294963496,4294962612,541,4294967140,4294966985,15705,5047,4294964736,2055,1119,4294965486,1365,15610,6050,171,94,37
389059177,4294966420,16073,4294963545,4294962604,640,4294967127,4294966991,15752,5007,4294964749,2050,1222,4294965498,1343,15543,6073,188,95,56
389065177,4294967134,16122,4294963555,4294962616,753,4294967094,4294966994,15833,4979,4294964697,2088,1278,4294965529,1351,15495,6034,201,105,66
389071177,897,16130,4294963576,4294962704,851,4294967059,4294967036,15798,5018,4294964548,2214,1314,4294965524,1396,15568,6049,208,81,70
389077177,4294966769,16187,4294963686,4294962701,931,4294967032,4294967073,15863,5007,4294964574,2422,1334,4294965535,1527,15541,5999,204,76,43
389083177,4294966501,16164,4294963623,4294962716,1017,4294967006,4294967125,15865,5015,4294964495,2676,1361,4294965506,1428,15545,6074,209,103,13
389089177,648,16186,4294963654,4294962755,1039,4294966987,4294967161,15828,4931,4294964540,2916,1438,4294965464,1395,15556,6045,221,126,9
389095177,4294967182,16183,4294963665,4294962704,1037,4294966940,4294967189,15802,4951,4294964599,3216,1352,4294965430,1428,15574,6051,231,103,4294967283
389101177,4294966105,16250,4294963648,4294962769,1055,4294966880,4294967208,15999,4890,4294964579,3477,1253,4294965434,1452,15595,5995,236,95,4294967288
389107177,219,16330,4294963683,4294962764,1040,4294966870,4294967212,15982,4872,4294964571,3828,1229,4294965387,1355,15541,5950,210,116,4294967269
389113177,378,16251,4294963704,4294962872,1040,4294966851,4294967213,16015,4802,4294964616,4235,854,4294965387,1348,15517,5975,200,110,4294967256
389119177,4294966086,16212,4294963653,4294962963,984,4294966831,4294967167,15818,4749,4294964565,4741,413,4294965303,1434,15544,6080,191,95,4294967236
389125177,4294966811,16171,4294963571,4294962761,930,4294966863,4294967178,15988,4726,4294964270,5330,4294966663,4294965281,1420,15567,6011,169,97,4294967264
389131177,528,16117,4294963622,4294962850,858,4294966903,4294967171,16307,4957,4294963944,5676,4294965918,4294965239,1377,15592,5964,175,68,4294967231
389137177,4294966405,16085,4294963558,4294962792,774,4294966932,4294967182,16622,5228,4294963928,5603,4294966169,4294965193,1474,15597,5970,165,32,4294967224
389143177,4294966124,16177,4294963535,4294962816,718,4294967011,4294967198,16192,5234,4294963937,5566,4294966554,4294965180,1452,15527,6035,122,62,4294967214
389149177,309,16096,4294963667,4294962764,720,4294967067,4294967206,16200,5362,4294963906,5627,4294966297,4294965250,1364,15497,6033,110,90,4294967189
389155177,4294966931,16120,4294963695,4294962812,812,4294967114,4294967222,16104,5425,4294963959,5899,4294966206,4294965209,1481,15523,6004,125,81,4294967185
389161177,4294965908,15995,4294963803,4294962890,974,4294967183,4294967201,15524,5558,4294963823,6601,4294965616,4294965081,1483,15573,5920,82,73,4294967172
389167177,136,16007,4294963924,4294962744,1265,4294967246,4294967196,15783,5800,4294963703,7413,4294964624,4294965002,1464,15534,5898,84,126,4294967150
389173177,501,15954,4294964052,4294962765,1649,26,4294967173,16076,6040,4294963512,7876,4294964053,4294964865,1407,15394,5958,4294967283,208,4294967156
389179177,4294966433,15831,4294964175,4294962692,2087,100,4294967155,16168,6029,4294963398,8220,4294964346,4294964611,1381,15404,6053,4294967282,204,4294967177
389185177,36,15828,4294964191,4294962706,2497,173,4294967103,16095,6008,4294963250,8358,4294964469,4294964377,1496,15328,6028,4294967260,217,4294967207
389191177,1163,15760,4294964227,4294962744,2835,227,4294967093,16000,5885,4294963315,8353,4294964502,4294964162,1405,15397,6002,4294967233,266,4294967245
389197177,4294967146,15652,4294964298,4294962857,3055,230,4294967081,15872,5586,4294963363,8477,4294964560,4294963956,1459,15387,6066,4294967203,301,4294967212
389203177,4294966955,15666,4294964291,4294962994,3101,211,4294967081,15527,5452,4294963381,8809,4294964072,4294963813,1568,15287,6144,4294967181,303,4294967177
389209177,1072,15656,4294964378,4294963074,3014,174,4294967100,15734,5322,4294963211,9261,4294963515,4294963682,1511,15312,6157,4294967206,386,4294967186
389215177,233,15713,4294964411,4294963116,2819,107,4294967122,15720,5389,4294963043,9648,4294963067,4294963554,1475,15341,6088,4294967162,476,4294967204
389221177,4294966299,15765,4294964431,4294963114,2500,49,4294967140,15663,5428,4294962926,9979,4294963231,4294963392,1483,15285,6195,4294967174,507,4294967191
389227177,305,15779,4294964503,4294963208,2174,4294967270,4294967163,15657,5456,4294962786,10354,4294962993,4294963225,1465,15369,6156,4294967189,585,4294967190
389233177,389,15737,4294964524,4294963175,1860,4294967163,4294967135,16084,5664,4294962777,10527,4294963263,4294962975,1424,15375,6093,4294967180,669,4294967236
389239177,4294966096,15805,4294964489,4294963107,1602,4294967044,4294967094,16227,5597,4294962756,10453,4294964143,4294962715,1445,15322,6129,4294967196,723,4294967228
389245177,4294966806,15868,4294964541,4294963158,1407,4294966859,4294967003,16000,5424,4294962725,10310,4294964488,4294962456,1479,15371,6230,4294967221,766,4294967232
389251177,574,15848,4294964469,4294963211,1282,4294966690,4294966876,15614,5380,4294962682,9845,4294964256,4294962329,1484,15398,6180,4294967250,857,4294967232
389257177,4294966535,15887,4294964292,4294963228,1224,4294966541,4294966707,15476,5421,4294962834,9061,4294964046,4294962237,1450,15410,6108,4294967249,951,4294967254
389263177,4294966386,16005,4294964244,4294963192,1290,4294966330,4294966560,15426,5526,4294962451,8141,4294964095,4294962101,1559,15458,6160,4294967282,1018,4294967231
389269177,642,16160,4294964206,4294963217,1389,4294966166,4294966413,15618,5695,4294962539,7204,4294964317,4294962007,1645,15457,6026,7,1066,4294967223
389275177,4294967281,16279,4294964199,4294963329,1549,4294966042,4294966288,15531,5877,4294962469,6196,4294964279,4294962012,1554,15518,5946,4294967287,1164,4294967217
389281177,4294966223,16275,4294964241,4294963349,1737,4294965949,4294966174,15672,6079,4294962538,5396,4294964362,4294962011,1523,15532,5852,4294967295,1241,4294967203
389287177,314,16700,4294964297,4294963481,1830,4294966276,4294966116,15977,6089,4294962787,5054,4294965102,4294961854,1421,15535,5860,4294967273,1329,4294967202
389293177,548,16214,4294964256,4294963201,2248,4294966512,4294966021,15992,5929,4294962889,5237,4294965750,4294961609,1333,15539,5915,4294967248,1434,4294967198
389299177,4294966364,16176,4294964307,4294963231,2671,4294966343,4294965943,15987,5739,4294962940,5607,4294965950,4294961455,1362,15504,5894,4294967238,1433,4294967210
389305177,4294967077,16212,4294964548,4294963184,2994,4294966378,4294965900,16018,5691,4294962971,5945,4294966001,4294961329,1435,15491,5939,4294967195,1436,4294967168
389311177,729,16391,4294964704,4294963149,2880,4294966502,4294965871,16084,5720,4294963040,6020,4294966263,4294961228,1421,15569,5938,4294967177,1489,4294967122
389317177,4294966585,16164,4294964672,4294963090,2801,4294966695,4294965804,16081,5506,4294962954,5933,4294966851,4294961191,1307,15578,5965,4294967130,1563,4294967100
389323177,4294966226,16283,4294964544,4294963119,2717,4294966527,4294965726,15953,5256,4294962996,5792,181,4294961172,1148,15633,6085,4294967130,1573,4294967087
389329177,335,16305,4294964492,4294963210,2590,4294966591,4294965674,15655,5265,4294963014,5432,471,4294961243,1275,15607,6179,4294967190,1556,4294967065
389335177,4294966960,16241,4294964452,4294963274,2403,4294966709,4294965594,15392,5328,4294963032,4773,557,4294961469,1427,15480,6332,4294967207,1555,4294967029
389341177,4294965986,16261,4294964256,4294963228,2279,4294966695,4294965520,15245,5594,4294963120,3748,495,4294961723,1471,15414,6201,4294967206,1604,4294967007
389347177,222,16306,4294964170,4294963218,2200,4294966611,4294965461,15300,5736,4294963095,2469,570,4294962014,1265,15366,6118,4294967175,1712,4294966976
389353177,646,16261,4294964084,4294963279,2127,4294966631,4294965406,15260,5772,4294963200,1479,801,4294962240,1129,15429,6088,4294967162,1761,4294966962
389359177,4294966710,16159,4294964074,4294963224,2156,4294966631,4294965332,15214,5681,4294963269,685,948,4294962434,1159,15414,6233,4294967175,1720,4294966910
389365177,250,16130,4294964051,4294963013,2287,4294966622,4294965234,15014,5444,4294963301,167,1226,4294962573,1261,15457,6244,4294967206,1706,4294966919
389371177,1299,16134,4294964072,4294962729,2488,4294966717,4294965169,14943,5288,4294963434,4294967235,1347,4294962669,1255,15458,6251,4294967212,1784,4294966895
389377177,12,16243,4294964140,4294962714,2625,4294966984,4294965134,14814,4986,4294963460,4294967128,1391,4294962794,1141,15370,6268,4294967207,1851,4294966890
389383177,4294967057,15985,4294964182,4294962479,2837,12,4294965105,14848,4715,4294963407,4294967051,1624,4294962910,1203,15364,6210,4294967210,1840,4294966831
389389177,1089,15755,4294964190,4294962280,3041,114,4294965114,14675,4493,4294963229,4294966961,1964,4294963001,1115,15403,6275,4294967226,1861,4294966797
389395177,326,15571,4294964238,4294962270,3320,54,4294965112,14678,4399,4294963186,4294966857,2095,4294963096,1004,15416,6306,4294967238,1906,4294966777
389401177,4294966432,15479,4294964263,4294962257,3622,73,4294965106,14778,4217,4294963308,4294966894,2547,4294963106,952,15498,6076,4294967260,1869,4294966742
389407177,307,15521,4294964249,4294962302,3767,77,4294965072,14731,4150,4294963313,4294967039,2880,4294963039,973,15543,6073,4294967255,1799,4294966735
389413177,413,15485,4294964175,4294962145,3758,170,4294965056,14704,4080,4294963359,4294967211,2964,4294963017,987,15619,5973,4294967239,1709,4294966706
389419177,4294966187,15448,4294964149,4294962270,3437,277,4294965052,14771,3952,4294963685,55,2991,4294963042,966,15677,6008,4294967216,1649,4294966723
389425177,4294966652,15295,4294963857,4294962168,2959,330,4294965044,14835,3870,4294963709,172,3027,4294963060,892,15644,6086,4294967151,1593,4294966719
389431177,4294967015,15099,4294963627,4294962153,2534,281,4294965070,14860,3827,4294963756,217,3022,4294963135,857,15620,6091,4294967136,1470,4294966759
389437177,4294964931,15059,4294963542,4294962047,2147,135,4294965058,14875,3707,4294963810,170,2963,4294963198,981,15444,6260,4294967131,1356,4294966748
389443177,4294964919,15127,4294963513,4294962121,1865,4,4294965024,14896,3663,4294963866,92,2843,4294963286,1038,15476,6314,4294967154,1259,4294966753
389449177,4294966638,15334,4294963465,4294961967,1559,4294967214,4294965052,14891,3509,4294963857,4294967287,2708,4294963386,1037,15411,6342,4294967148,1214,4294966715
389455177,1727,15352,4294963333,4294961919,1347,4294967237,4294965073,14963,3348,4294963809,4294967284,2608,4294963441,1004,15375,6393,4294967150,1183,4294966688
389461177,1733,15480,4294963276,4294961728,1272,24,4294965078,14980,3367,4294963817,54,2551,4294963525,931,15404,6469,4294967189,1143,4294966641
389467177,1730,15456,4294963206,4294961500,1330,67,4294965036,14975,3429,4294963871,137,2454,4294963593,710,15321,6438,4294967226,1130,4294966653
389473177,1709,15436,4294963210,4294961280,1417,42,4294965076,15026,3435,4294963968,169,2348,4294963666,688,15386,6449,4294967275,1066,4294966649
389479177,1717,15601,4294963224,4294961035,1513,4294967252,4294965074,15083,3405,4294963942,215,2236,4294963830,658,15418,6453,43,953,4294966642
389485177,1712,15838,4294963167,4294960999,1603,4294967256,4294965105,15100,3437,4294963970,268,2055,4294963945,729,15399,6408,15,831,4294966658
389491177,1713,15818,4294963213,4294960915,1574,27,4294965337,15207,3467,4294963945,368,1839,4294964073,617,15303,6500,4294967291,717,4294966691
389497177,1022,16043,4294963174,4294960755,1360,4294967262,4294965559,15337,3547,4294963923,480,1514,4294964312,566,15239,6511,45,523,4294966750
389503177,4294965694,16215,4294963108,4294960644,1098,4294967222,4294965691,15515,3574,4294963958,564,1150,4294964540,599,15136,6558,118,335,4294966764
389509177,4294964940,16346,4294962948,4294960563,826,4294967206,4294965824,15710,3606,4294963953,604,719,4294964794,712,15061,6629,193,182,4294966804
389515177,4294964937,16593,4294962853,4294960494,458,4294967208,4294965965,15835,3600,4294963904,605,270,4294965100,704,15112,6621,252,111,4294966819
389521177,4294964944,16578,4294962751,4294960520,4294967255,4294967111,4294966068,16039,3659,4294963925,633,4294967063,4294965395,677,15072,6708,293,48,4294966818
389527177,4294964929,16766,4294962547,4294960497,4294967013,4294967095,4294966111,16176,3632,4294963924,622,4294966576,4294965689,686,15168,6617,280,4294967277,4294966827
389533177,4294964927,16919,4294962399,4294960587,4294966866,4294967243,4294966159,16373,3706,4294963806,622,4294966086,4294965973,658,15132,6538,250,4294967238,4294966847
389539177,4294964936,16837,4294962317,4294960669,4294966677,4294967231,4294966230,16500,3750,4294963796,556,4294965590,4294966259,654,15162,6516,225,4294967137,4294966879
389545177,4294964931,16614,4294962220,4294960717,4294966344,4294967102,4294966424,16645,3697,4294963718,385,4294965184,4294966561,610,15180,6499,248,4294967088,4294966909
389551177,4294965517,16618,4294962006,4294960796,4294966122,4294967023,4294966538,16605,3588,4294963683,81,4294964851,4294966902,513,15176,6436,285,4294967059,4294966982
389557177,4294966932,16441,4294961802,4294960894,4294965960,4294967085,4294966684,16585,3555,4294963613,4294967001,4294964587,4294967211,581,15235,6343,317,4294966971,4294967002
389563177,1711,16191,4294961541,4294961015,4294965891,4294967194,4294966845,16424,3504,4294963481,4294966553,4294964394,233,618,15240,6443,307,4294966784,4294967030
389569177,1724,16046,4294961315,4294960920,4294965918,147,4294966892,16212,3481,4294963467,4294965981,4294964214,591,649,15233,6397,291,4294966715,4294967032
389575177,1707,15761,4294961115,4294960896,4294965942,422,4294966960,16044,3430,4294963368,4294965320,4294964150,974,589,15231,6462,284,4294966586,4294967042
389581177,1719,15474,4294961028,4294961002,4294965787,620,4294967180,15914,3374,4294963275,4294964624,4294964106,1332,665,15232,6487,294,4294966460,4294967048
389587177,1728,15402,4294961020,4294960930,4294965672,816,103,15761,3386,4294963212,4294963894,4294964066,1722,766,15228,6381,284,4294966361,4294967055
389593177,488,15341,4294961106,4294961023,4294965590,1024,300,15607,3340,4294963220,4294963128,4294964049,2121,749,15281,6423,275,4294966280,4294967034
389599177,4294964942,15351,4294961193,4294961210,4294965528,1209,464,15591,3288,4294963207,4294962498,4294964041,2553,743,15346,6284,228,4294966206,4294967041
389605177,4294964948,15257,4294961304,4294961602,4294965350,1317,650,15372,3244,4294963252,4294961860,4294964060,2900,709,15383,6210,192,4294966154,4294967045
389611177,4294964945,15154,4294961393,4294961966,4294965034,1390,821,15106,3170,4294963229,4294961219,4294964051,3225,755,15471,6099,159,4294966057,4294967038
389617177,4294964932,15033,4294961221,4294962340,4294964499,1443,1046,15073,3290,4294963383,4294960697,4294964058,3607,807,15573,6136,144,4294965939,4294967038
389623177,4294964939,14809,4294960955,4294962655,4294963693,1548,1315,14914,3426,4294963345,4294960265,4294964070,3998,856,15652,6034,143,4294965872,4294967046
389629177,4294965143,14605,4294960612,4294962912,4294962789,1650,1636,14726,3519,4294963389,4294959915,4294964072,4288,880,15725,6046,120,4294965805,4294967040
389635177,4294964932,14446,4294960312,4294962882,4294961832,1717,1986,14617,3542,4294963371,4294959669,4294964038,4531,939,15783,6003,138,4294965666,4294966986
389641177,4294964929,14398,4294960105,4294962880,4294960891,1788,2378,14449,3600,4294963518,4294959371,4294964013,4713,980,15885,5964,114,4294965555,4294966918
389647177,4294965841,14305,4294960075,4294962632,4294960175,1915,2692,14411,3654,4294963609,4294959145,4294963998,4920,1013,15907,6095,59,4294965465,4294966832
389653177,4294965980,14417,4294960213,4294962409,4294959725,2015,2989,14434,3657,4294963576,4294958939,4294964018,5190,941,15935,5908,4294967262,4294965382,4294966712
389659177,4294964926,14723,4294960380,4294962241,4294959601,2123,3238,14443,3582,4294963646,4294958789,4294963975,5445,807,16026,5805,4294967152,4294965244,4294966648
389665177,4294965110,15215,4294960671,4294962120,4294959748,2131,3442,14543,3571,4294963631,4294958609,4294963915,5681,744,15898,5891,4294967077,4294965064,4294966568
389671177,4294965296,15719,4294960965,4294962106,4294959736,2567,3631,14717,3528,4294963653,4294958432,4294963760,5927,605,15873,5931,4294966999,4294964900,4294966565
389677177,4294964921,15785,4294960957,4294961989,4294960213,2618,3755,14854,3425,4294963666,4294958290,4294963583,6182,667,15691,6121,4294966928,4294964738,4294966556
389683177,4294965492,16019,4294961079,4294962232,4294960792,2450,3943,15027,3385,4294963630,4294958219,4294963323,6389,643,15603,6235,4294966989,4294964645,4294966579
389689177,1123,16399,4294961283,4294962337,4294961096,2452,4229,15150,3410,4294963763,4294958240,4294963015,6608,772,15515,6207,4294967047,4294964539,4294966593
389695177,1722,16642,4294961379,4294962295,4294961263,2631,4617,15323,3470,4294963794,4294958419,4294962733,6762,764,15433,6275,4294967045,4294964471,4294966576
389701177,1730,16940,4294961573,4294962264,4294961435,2851,4997,15304,3536,4294963941,4294958575,4294962461,6940,674,15430,6293,4294967135,4294964380,4294966571
389707177,1708,17073,4294961841,4294961989,4294961575,3247,5424,15400,3786,4294963934,4294958790,4294962172,7110,650,15555,6200,4294967203,4294964325,4294966538
389713177,1709,17128,4294962080,4294961812,4294961671,3573,5865,15399,4024,4294963891,4294959078,4294961893,7300,546,15652,6364,4294967250,4294964168,4294966470
389719177,1730,17231,4294962198,4294961781,4294961720,3853,6346,15391,4199,4294963775,4294959323,4294961586,7469,581,15766,6421,61,4294963982,4294966401
389725177,1720,17600,4294962587,4294961584,4294961635,4027,6825,15468,4329,4294963530,4294959514,4294961261,7645,513,15764,6560,244,4294963901,4294966381
389731177,1719,18444,4294962782,4294961462,4294961103,4664,7274,15899,4431,4294963311,4294959573,4294960803,7928,411,15805,6656,419,4294963888,4294966451
389737177,1722,18549,4294962206,4294961221,4294961979,4887,7458,16365,4613,4294963042,4294959750,4294960278,8215,99,15625,6660,559,4294963875,4294966631
389743177,606,19003,4294962297,4294961428,4294963981,4259,7463,16980,4650,4294962700,4294959813,4294959604,8530,4294967004,15551,6669,746,4294963995,4294966918
389749177,1007,19770,4294963344,4294961930,4294964834,4231,7559,17658,4906,4294962536,4294959986,4294959008,8939,4294966650,15570,6382,971,4294964054,4294967179
389755177,4294966598,19735,4294963861,4294961913,4294964359,4467,7746,17985,5250,4294962412,4294960225,4294958498,9304,4294966697,15718,6124,1145,4294963934,44
389761177,4294964932,19322,4294963699,4294962008,4294964106,4362,7887,18027,5658,4294962300,4294960400,4294958098,9680,4294967157,16020,6074,1263,4294963645,167
389767177,4294965856,18838,4294963781,4294962342,4294964143,4155,8018,17656,6291,4294962608,4294960542,4294957905,10010,337,16221,6207,1393,4294963460,253
389773177,4294965847,18135,4294963921,4294962304,4294963765,4169,8210,16962,6902,4294962852,4294960405,4294957947,10310,597,16425,6236,1529,4294963365,319
389779177,4294964944,17076,4294963480,4294962230,4294963842,4075,8460,16049,7349,4294962975,4294960065,4294958210,10589,529,16605,6393,1673,4294963322,408
389785177,4294964926,16314,4294963384,4294962367,4294964914,3937,8616,15274,7873,4294962722,4294959532,4294958566,10770,516,16688,6486,1904,4294963181,469
389791177,4294965041,15784,4294963658,4294962702,4294966025,3930,8802,14573,8024,4294962479,4294959015,4294959138,10844,507,16547,6675,2226,4294962997,573
389797177,4294964939,15392,4294963978,4294963027,4294966881,4024,8942,13989,8139,4294962226,4294958114,4294959907,11022,554,16592,6902,2530,4294962741,725
389803177,4294965068,15086,4294964266,4294963352,287,4191,9152,13350,8162,4294961838,4294956867,4294960851,11125,777,16626,7180,2829,4294962374,877
389809177,14,14763,4294964288,4294963596,1025,4264,9357,12957,7994,4294961441,4294955514,4294961831,11160,1188,16643,7353,3092,4294962049,937
389815177,560,15006,4294964654,4294963841,1788,4428,9541,12770,7586,4294961126,4294953880,4294962760,11297,1434,16557,7413,3393,4294961917,943
389821177,473,14808,4294965067,4294963993,1828,4590,9823,12634,7083,4294961099,4294952550,4294963514,11267,1490,16632,7265,3599,4294961862,971
389827177,1720,14976,4294965493,4294964204,1254,4457,9997,12799,6508,4294961158,4294951678,4294964043,11029,1806,16439,7216,3851,4294961659,920
389833177,1640,15184,4294965474,4294964175,450,4487,10101,13076,5951,4294961177,4294951468,4294964386,10588,2017,16313,7175,4171,4294961728,920
389839177,4294966552,15198,4294965280,4294964188,24,4394,9958,13354,5656,4294961410,4294951928,4294964591,10011,2129,16172,6986,4400,4294961913,941
389845177,4294966836,15165,4294965223,4294964169,4294967065,4141,9713,13795,5599,4294961709,4294953056,4294964630,9174,2617,16018,6792,4461,4294962057,1161
389851177,871,15146,4294964370,4294963943,4294966816,3723,9435,14376,5452,4294961922,4294954798,4294964461,8313,2685,15991,6645,4609,4294962321,1272
389857177,512,15732,4294964541,4294963316,4294964385,2089,9179,14881,5423,4294962133,4294956937,4294964117,7364,2876,15887,6638,4646,4294962544,1402
389863177,1466,15534,4294964385,4294964265,64,2628,8647,15390,5703,4294962351,4294959507,4294963961,6245,3037,15470,6522,4704,4294962739,1528
389869177,1730,15995,4294964776,4294964573,4294967104,2471,8242,16094,6265,4294962714,4294962171,4294963528,5270,3060,15300,6360,4727,4294962938,1685
389875177,1726,16266,4294964270,4294964861,4294966512,2318,7983,16408,6646,4294962735,4294964526,4294963173,4348,2831,15421,6198,4878,4294963145,1715
389881177,4294966972,16863,4294965313,4294964959,4294963937,2220,7951,16919,7298,4294962542,4294966451,4294962903,3562,2319,15777,6087,5072,4294963512,1641
389887177,4294966823,16788,4294964539,4294964603,4294961203,2029,7919,16736,8324,4294962624,845,4294962628,2736,2473,15755,5847,5214,4294963903,1810
389893177,4294965943,16893,4294964189,4294964462,4294959453,1587,7657,16872,9348,4294962650,1464,4294962287,2189,2609,15691,6035,5328,4294964172,2082
389899177,4294964929,16843,4294963356,4294964215,4294958676,1066,7218,17189,9963,4294962511,1367,4294962027,1830,2415,15731,6090,5283,4294964411,2293
389905177,4294965086,16838,4294962918,4294964245,4294959558,686,6492,17457,10586,4294962408,1261,4294962095,1530,2405,15675,5899,5178,4294964598,2252
389911177,4294965946,16700,4294962783,4294964180,4294961086,355,5701,17911,11803,4294962555,270,4294962364,1403,2580,15519,5847,5046,4294964696,2137
389917177,4294965106,16651,4294962991,4294964243,4294962939,4294967183,4866,18094,12466,4294962536,4294964788,4294964402,1624,2952,15515,5737,4973,4294964838,2037
389923177,4294965570,16754,4294963316,4294964446,4294964616,4294967143,4061,17983,12090,4294962600,4294962090,4294965791,2026,3195,15459,5563,4815,4294965048,1942
389929177,242,16443,4294963585,4294964415,4294965769,4294966812,3365,17551,11435,4294962838,4294960028,4294966866,2180,3410,15454,5226,4515,4294965235,1842
389935177,4294967239,16407,4294963702,4294964322,4294966898,4294966476,2705,17225,10374,4294962757,4294959217,153,2162,3570,15342,5038,4207,4294965397,1730
389941177,4294966329,16306,4294963772,4294964382,929,4294966393,2037,16864,9416,4294962713,4294959794,362,2085,3862,15223,4802,3839,4294965353,1681
389947177,383,16210,4294963877,4294964312,2391,4294966497,1393,16384,8481,4294962587,4294961196,221,1670,5015,14938,4431,3332,4294965011,1678
389953177,850,16119,4294964054,4294964412,3678,4294966709,797,16058,8112,4294962289,4294962960,4294967097,1247,6060,14878,4136,2759,4294964717,1805
389959177,4294967111,16104,4294964379,4294964419,4626,4294967074,294,15987,7857,4294961966,4294964488,4294967100,915,6428,14927,3697,2434,4294965095,1876
389965177,804,15932,4294964689,4294964451,5030,281,4294967239,15218,7440,4294961800,4294965661,4294966776,512,5725,14705,3288,2188,4294965708,1826
389971177,1724,15648,4294964840,4294964453,4756,568,4294966974,14942,7220,4294961607,4294966542,4294966138,158,4773,14425,3116,2032,4294966306,1965
389977177,858,15630,4294964693,4294964511,4272,704,4294966789,14812,6958,4294961500,4294967191,4294965670,4294967110,3740,14321,2840,1903,4294966685,1987
389983177,470,15420,4294964531,4294964663,3868,926,4294966622,14627,6706,4294961401,339,4294965560,4294966674,2879,14121,2844,1695,4294966605,1881
389989177,1516,15318,4294964243,4294964711,3616,1110,4294966435,14541,6473,4294961470,744,4294965754,4294966252,2653,13736,3010,1384,4294966484,1771
389995177,513,15069,4294964043,4294964941,3421,1159,4294966238,14413,6364,4294961683,1223,4294966066,4294965732,2818,13451,3039,1225,4294966405,1610
390001177,4294966364,14935,4294964014,4294965133,3216,1037,4294966057,14320,6271,4294961801,1663,4294966472,4294965226,2761,13472,3215,1046,4294966574,1357
390007177,4294967242,14815,4294963957,4294965167,3086,839,4294965884,14408,6196,4294962003,2179,4294966960,4294964760,2375,13509,3318,647,4294966754,1038
390013177,4294967152,14738,4294963974,4294965273,3050,558,4294965662,14358,6243,4294962208,2770,241,4294964254,2063,13420,3259,238,4294966735,670
390019177,4294965602,14609,4294964075,4294965237,3149,243,4294965397,14391,6186,4294962313,3424,893,4294963825,1953,13238,3249,4294967185,4294966529,390
390025177,4294966382,14516,4294964147,4294965218,3270,4294967134,4294965159,14460,6223,4294962373,4089,1547,4294963361,1877,13470,3404,4294966899,4294966362,105
390031177,295,14467,4294964267,4294965027,3333,4294966706,4294964981,14444,6238,4294962500,4802,2102,4294963003,1750,13503,3362,4294966474,4294966249,4294967111
390037177,4294966684,14549,4294964377,4294965116,3375,4294966315,4294964855,14443,6261,4294962382,5387,2443,4294962658,1559,13533,3428,4294965974,4294966199,4294966861
390043177,4294966802,14699,4294964524,4294965110,3279,4294966058,4294964785,14484,6316,4294962333,5832,2596,4294962414,1428,13394,3342,4294965470,4294966173,4294966707
390049177,1058,14839,4294964590,4294965170,3041,4294965839,4294964728,14539,6339,4294962209,6186,2611,4294962187,1136,13449,3337,4294965091,4294966282,4294966600
390055177,229,14917,4294964705,4294965289,2636,4294965679,4294964749,14666,6235,4294962149,6453,2540,4294962021,1099,13464,3310,4294964737,4294966224,4294966341
390061177,4294966046,15107,4294964727,4294965260,2137,4294965620,4294964762,14730,6114,4294962151,6667,2529,4294961899,1215,13363,3463,4294964438,4294966334,4294966142
390067177,4294966920,15210,4294964622,4294965220,1597,4294965610,4294964763,14846,6021,4294962179,6996,2520,4294961794,1121,13444,3570,4294964133,4294966593,4294966010
390073177,4294967176,15383,4294964409,4294965164,1079,4294965639,4294964763,14802,5970,4294962167,7328,2444,4294961645,1171,13462,3667,4294963833,4294966761,4294965812
390079177,4294966732,15472,4294964173,4294965171,616,4294965664,4294964696,14923,5965,4294962075,7677,2329,4294961601,1217,13633,3837,4294963436,4294966961,4294965668
390085177,1620,15673,4294963814,4294965130,275,4294965638,4294964610,14971,6053,4294961875,8026,2247,4294961529,1229,13731,3986,4294963053,4294967221,4294965545
390091177,1719,15814,4294963418,4294965242,83,4294965590,4294964472,15024,6076,4294961761,8300,2255,4294961391,1212,13869,4054,4294962785,203,4294965432
390097177,1715,15977,4294963084,4294965200,89,4294965530,4294964260,15036,6195,4294961698,8601,2362,4294961283,1250,14053,4131,4294962585,511,4294965369
390103177,1564,15913,4294962626,4294965297,288,4294965436,4294964005,15024,6329,4294961610,8730,2564,4294961174,1169,14285,4214,4294962337,826,4294965348
390109177,1721,16026,4294962296,4294965221,694,4294965344,4294963711,14976,6398,4294961576,8802,2803,4294961034,1014,14407,4271,4294961993,1272,4294965356
390115177,227,16031,4294962042,4294965287,1298,4294965284,4294963437,14947,6440,4294961674,8740,3014,4294961035,1067,14331,4477,4294961638,1720,4294965348
390121177,4294965405,16044,4294961917,4294965186,2097,4294965228,4294963144,14970,6499,4294961709,8588,3274,4294961096,1289,14161,4495,4294961153,2232,4294965331
390127177,4294966225,15948,4294961931,4294965018,2956,4294965215,4294962861,14938,6411,4294961668,8452,3558,4294961172,1046,14292,3988,4294960650,3140,4294965197
390133177,4294966224,15899,4294961991,4294964897,3965,4294965157,4294962538,14808,6380,4294961621,8284,3812,4294961242,4294967248,14810,3382,4294960282,4336,4294964818
390139177,4294964924,15905,4294962106,4294964794,4976,4294965158,4294962302,14714,6263,4294961542,8035,4012,4294961312,4294965700,15285,3014,4294960212,5252,4294964203
390145177,4294965627,15932,4294962327,4294964666,5919,4294965236,4294962080,14580,6022,4294961498,7818,4221,4294961386,4294964941,15163,2910,4294960156,5478,4294963574
390151177,4294966752,15914,4294962495,4294964551,6764,4294965371,4294961974,14403,5883,4294961503,7634,4355,4294961413,4294966083,13679,2657,4294959869,5292,4294963223
390157177,4294965219,16002,4294962718,4294964393,7450,4294965529,4294961936,14347,5768,4294961509,7457,4396,4294961369,247,13695,2320,4294959155,5528,4294963521
390163177,4294965175,16076,4294962803,4294964343,7930,4294965679,4294962018,14294,5641,4294961342,7366,4397,4294961376,1373,16941,2532,4294959767,5818,4294964088
390169177,4294966930,16184,4294962944,4294964153,8215,4294965804,4294962185,14386,5436,4294961305,7354,4410,4294961405,4886,18927,4326,4294961014,4630,4294964801
390175177,4294966342,16254,4294963060,4294964066,8255,4294965876,4294962437,14404,5409,4294961214,7417,4413,4294961403,6001,21812,6207,4294962572,4053,4294965118
390181177,4294965266,16254,4294963139,4294963927,8060,4294965940,4294962821,14472,5384,4294961202,7592,4443,4294961373,6409,24819,8802,4294964495,2832,4294965390
390187177,4294966638,16320,4294963249,4294963920,7682,4294965951,4294963256,14593,5436,4294961243,7889,4389,4294961346,4447,28105,10095,4294967026,1891,4294965808
390193177,4294966130,16549,4294963363,4294963842,7149,4294965911,4294963792,14874,5462,4294961202,8239,4286,4294961253,4294967197,28996,10573,1481,2342,4294966326
390199177,4294964945,16881,4294963467,4294963628,6536,4294965794,4294964317,15367,5322,4294961254,8556,4123,4294961155,4294961281,24825,9536,1947,3755,4294967273
390205177,4294964927,17400,4294963612,4294963377,5972,4294965564,4294964740,16055,5152,4294961129,8721,3947,4294961103,4294960877,18946,7590,977,3630,1183
390211177,4294965073,18131,4294963738,4294963110,5467,4294965167,4294965086,16764,4866,4294960915,8979,3672,4294961045,4294965038,16114,5153,4294966892,2337,2005
390217177,4294964898,18905,4294963831,4294963049,5008,4294964557,4294965222,17768,4729,4294960734,9411,3257,4294961039,3039,14548,4631,4294965768,1083,1779
390223177,4294965242,19526,4294963772,4294962969,4610,4294963852,4294965237,18578,4761,4294960607,9774,2914,4294960990,6117,13019,5465,4294964970,1317,971
390229177,706,19936,4294963542,4294963288,4268,4294963212,4294965104,19161,5013,4294960447,10016,2608,4294960869,5698,12159,6223,4294964512,2793,148
390235177,1045,19893,4294963078,4294963547,3985,4294962760,4294964933,19317,5263,4294960415,10085,2337,4294960753,3068,12413,6553,4294964751,4055,4294966643
390241177,411,19400,4294962365,4294963739,3676,4294962555,4294964842,18988,5632,4294960599,9973,2210,4294960618,1438,13805,6482,4294965539,3961,4294966127
390247177,1723,18615,4294961499,4294963752,3346,4294962683,4294964836,18310,5967,4294960898,9734,2238,4294960305,1867,15232,6743,4294966128,3081,4294966013
390253177,1724,17680,4294960738,4294963500,3090,4294962973,4294964936,17400,6244,4294961230,9448,2477,4294959949,2556,16127,6847,4294966467,2554,4294966206
390259177,285,16771,4294960197,4294963105,2938,4294963435,4294965062,16538,6469,4294961666,8916,2885,4294959631,2099,16470,6511,4294966226,2779,4294966431
390265177,635,15997,4294959907,4294962778,2940,4294963944,4294965118,15700,6528,4294961733,8026,3390,4294959383,1045,15997,6139,4294966164,3200,4294966595
390271177,1722,15322,4294959886,4294962581,3196,4294964648,4294965108,15014,6385,4294961743,6932,3924,4294959266,318,15502,5920,4294966762,3162,4294966678
390277177,434,14820,4294960018,4294962553,3677,4294965314,4294965032,14499,5958,4294961631,5624,4471,4294959316,505,15293,5937,418,3091,4294966807
390283177,144,14568,4294960301,4294962751,4502,4294966137,4294964816,14130,5629,4294961477,4303,5045,4294959388,14,15438,5909,1222,2789,4294966873
390289177,1497,14257,4294960648,4294963008,5578,4294967000,4294964609,13819,5271,4294961401,3054,5517,4294959470,486,15676,5954,1717,2465,4294966898
390295177,81,14136,4294961008,4294963278,6751,534,4294964440,13548,4975,4294961677,1966,5780,4294959580,670,16050,6000,1774,2325,4294966933
390301177,4294965535,13926,4294961305,4294963467,7746,1232,4294964335,13492,4624,4294961853,1024,5812,4294959704,1233,16067,6169,1425,2307,4294966971
390307177,4294966920,13894,4294961523,4294963664,8520,1719,4294964354,13700,4287,4294962061,532,5752,4294959783,1475,16047,6252,772,2349,4294966944
390313177,18,13916,4294961755,4294963548,8990,1977,4294964389,13961,4064,4294962397,552,5637,4294959812,1620,16023,6310,4294967091,2373,4294966853
390319177,4294965845,14005,4294961863,4294963569,9085,2040,4294964467,14239,3931,4294962806,1010,5418,4294959698,1462,15739,6387,4294966048,2279,4294966709
390325177,4294966695,14145,4294962000,4294963575,8724,1758,4294964592,14630,3969,4294963130,1660,5012,4294959584,1338,15384,6538,4294965279,2140,4294966594
390331177,614,14460,4294962130,4294963610,8111,1362,4294964663,15088,4124,4294963304,2546,4546,4294959507,1247,15202,6659,4294964825,2108,4294966465
390337177,4294966632,14613,4294962185,4294963612,7220,795,4294964737,15560,4242,4294963478,3410,4082,4294959568,976,15125,6648,4294964659,2185,4294966417
390343177,4294966732,14768,4294962168,4294963503,6114,208,4294964782,15764,4438,4294963477,4324,3571,4294959604,764,15161,6619,4294964458,2309,4294966414
390349177,1073,14925,4294961786,4294963527,4927,4294966788,4294964760,15835,4625,4294963552,5093,3080,4294959723,501,14902,6648,4294964533,2327,4294966493
390355177,4294966342,14917,4294961915,4294963565,3791,4294966049,4294964777,15801,4816,4294963421,5498,2614,4294959838,472,15096,6615,4294964773,2264,4294966593
390361177,4294964926,14952,4294961733,4294963533,2050,4294965154,4294964865,15760,4904,4294963502,5715,2127,4294960069,637,14871,6770,4294964946,1917,4294966716
390367177,4294964934,15010,4294961264,4294963305,744,4294964337,4294964861,15725,4950,4294963495,5693,1682,4294960386,506,14752,6707,4294965645,2226,4294966914
390373177,4294964937,14970,4294960775,4294963142,126,4294963663,4294964763,15553,4990,4294963615,5481,1356,4294960715,386,14868,6739,4294966477,1911,4294967062
390379177,4294964941,14938,4294960519,4294963041,12,4294963062,4294964648,15382,4991,4294963801,4936,1102,4294961083,302,14988,6710,4294966617,1259,4294967094
390385177,4294964937,15082,4294960372,4294962813,84,4294962553,4294964486,15177,4939,4294963846,4093,937,4294961441,399,14754,6839,4294966722,577,4294967155
390391177,4294964946,15185,4294960360,4294962591,343,4294962195,4294964330,14906,4712,4294963973,2985,873,4294961911,416,14749,6820,4294967176,386,4294967217
390397177,4294964940,15373,4294960292,4294962589,778,4294962066,4294964192,14882,4781,4294963938,1712,797,4294962362,475,14884,6904,235,198,4294967281
390403177,4294964932,15561,4294960501,4294962367,1235,4294961953,4294964067,14744,4378,4294963761,640,773,4294962997,723,14929,6904,330,64,4294967282
390409177,4294965117,15823,4294960697,4294962345,1589,4294962128,4294963912,14638,4145,4294963774,4294967150,738,4294963400,740,14922,6807,445,4294967276,16
390415177,4294966354,16000,4294960811,4294962202,1899,4294962405,4294963787,14680,4016,4294963777,4294966447,656,4294963834,692,14974,6860,695,4294967164,94
390421177,751,16108,4294961005,4294962067,2272,4294962797,4294963639,14761,3986,4294963718,4294965679,490,4294964355,747,15116,6723,784,4294967124,83
390427177,1716,16366,4294961020,4294962003,2705,4294963329,4294963421,14856,3776,4294963832,4294965064,258,4294964799,755,15217,6742,608,4294967032,96
390433177,1717,16379,4294961079,4294961951,3057,4294963963,4294963233,15088,3657,4294963810,4294964731,17,4294965184,757,15178,6705,380,4294966903,93
390439177,1718,16202,4294961302,4294961815,3136,4294964589,4294963329,15352,3579,4294963949,4294964637,4294967030,4294965555,803,15160,6595,268,4294966746,67
390445177,1706,16369,4294961194,4294961769,2787,4294965082,4294963568,15562,3507,4294963929,4294964737,4294966740,4294965891,845,15140,6509,261,4294966608,96
390451177,1709,16349,4294961153,4294961762,2482,4294965841,4294963626,15701,3468,4294964052,4294965067,4294966421,4294966196,902,15123,6367,509,4294966419,73
390457177,1720,15858,4294961311,4294961575,1843,4294966286,4294964223,15780,3537,4294964146,4294965470,4294966191,4294966563,1008,15184,6403,929,4294966188,99
390463177,1711,15801,4294961552,4294961670,1475,4294966930,4294964642,15731,3548,4294964155,4294965778,4294966031,4294966890,1007,15328,6301,1394,4294966108,131
390469177,1714,16023,4294961425,4294961601,1541,285,4294964644,15650,3567,4294964076,4294966015,4294965903,4294967191,981,15483,6273,1598,4294966046,110
390475177,1717,15715,4294961425,4294961434,1441,678,4294964726,15569,3495,4294963926,4294966135,4294965826,173,1130,15597,6246,1508,4294965894,124
390481177,1719,15517,4294961565,4294961372,1107,767,4294964946,15363,3425,4294963751,4294966087,4294965810,408,1281,15547,6169,1289,4294965756,72
390487177,1723,15202,4294961764,4294961423,622,776,4294965371,15224,3376,4294963571,4294965862,4294965855,673,1368,15541,6244,1134,4294965739,20
390493177,1716,14996,4294961645,4294961507,9,702,4294965784,15188,3271,4294963448,4294965551,4294965917,954,1414,15508,6197,1066,4294965875,4294967290
390499177,1721,15006,4294961497,4294961494,4294966786,579,4294966144,15074,3161,4294963437,4294965068,4294966133,1286,1327,15466,6205,1028,4294966134,4294967234
390505177,4294967266,15103,4294961327,4294961581,4294966641,493,4294966342,14835,3153,4294963405,4294964498,4294966363,1581,1332,15424,6278,1012,4294966326,4294967169
390511177,4294965444,15076,4294961339,4294961755,4294966445,325,4294966599,14719,3145,4294963539,4294963879,4294966571,1844,1342,15451,6312,964,4294966432,4294967145
390517177,4294964926,15219,4294961331,4294961825,4294966025,4294967272,4294966902,14718,3101,4294963467,4294963274,4294966767,2057,1288,15597,6159,749,4294966528,4294967088
390523177,4294964930,15381,4294961257,4294961826,4294965507,4294966858,4294967074,14696,3147,4294963605,4294962739,4294966940,2238,1260,15599,6137,385,4294966616,4294967028
390529177,4294964936,15499,4294961192,4294961976,4294965149,4294966541,4294967223,14639,3143,4294963658,4294962294,4294967070,2361,1180,15735,6082,67,4294966694,4294966977
390535177,4294964938,15495,4294961093,4294961930,4294964934,4294966370,140,14657,3161,4294963630,4294961923,4294967121,2470,1120,15631,6012,4294967102,4294966633,4294966931
390541177,4294964940,15521,4294961018,4294961875,4294964792,4294966286,420,14741,3175,4294963596,4294961570,4294967119,2622,1076,15514,6097,4294967033,4294966674,4294966932
390547177,4294964928,15472,4294960920,4294961795,4294964712,4294966260,708,14766,3151,4294963550,4294961435,4294967067,2761,1066,15485,6247,4294967127,4294966678,4294966949
390553177,4294964927,15568,4294960839,4294961757,4294964677,4294966372,944,14851,3024,4294963651,4294961518,4294966995,2881,1137,15395,6255,4294967154,4294966683,4294966925
390559177,4294964945,15532,4294960760,4294961654,4294964602,4294966485,1234,14898,3052,4294963607,4294961744,4294966923,2983,1214,15374,6240,4294967146,4294966723,4294966902
390565177,4294964929,15609,4294960717,4294961549,4294964599,4294966594,1482,14898,3018,4294963545,4294962090,4294966796,3069,1257,15366,6273,4294967144,4294966777,4294966894
390571177,4294964935,15660,4294960642,4294961556,4294964828,4294966732,1635,14831,3119,4294963546,4294962523,4294966680,3167,1191,15341,6273,4294967156,4294966815,4294966850
390577177,4294964934,15880,4294960664,4294961667,4294965195,4294967161,1724,14841,3284,4294963671,4294962954,4294966480,3288,1100,15341,6333,4294967108,4294966813,4294966842
390583177,4294964934,15839,4294960781,4294961672,4294965548,373,1890,14834,3436,4294963716,4294963347,4294966291,3429,1045,15254,6343,4294967098,4294966838,4294966832
390589177,4294965942,15694,4294960909,4294961624,4294965824,751,2116,14814,3651,4294963830,4294963706,4294966071,3604,960,15228,6482,4294967089,4294966896,4294966881
390595177,4294966238,15711,4294961029,4294961595,4294965890,1076,2340,14874,3891,4294963855,4294963956,4294965824,3809,969,15222,6434,4294966963,4294966936,4294966910
390601177,4294966460,15779,4294961104,4294961717,4294965961,1510,2491,14942,4141,4294963775,4294964162,4294965556,4100,919,15261,6434,4294966887,4294966976,4294966940
390607177,1303,15664,4294961205,4294961692,4294965958,1966,2678,14895,4312,4294964034,4294964217,4294965317,4365,930,15388,6389,4294966752,4294966964,4294966958
390613177,1719,15643,4294961349,4294961763,4294965935,2324,2863,14748,4566,4294963944,4294963960,4294965021,4540,1119,15375,6370,4294966660,4294966942,4294966955
390619177,851,15592,4294961632,4294961799,4294965835,2696,3100,14865,4807,4294963922,4294963669,4294964762,4824,1077,15381,6391,4294966591,4294966982,4294966983
390625177,1135,15553,4294961843,4294961833,4294965726,3053,3265,14861,4796,4294963825,4294963190,4294964595,5210,1041,15388,6348,4294966542,4294967041,4294966996
390631177,1636,15626,4294962067,4294961760,4294965671,3320,3466,14796,4838,4294963704,4294962663,4294964483,5466,982,15399,6419,4294966562,4294967040,4294966989
390637177,26,15559,4294962081,4294961748,4294965404,3806,3718,14715,4834,4294963627,4294962197,4294964387,5761,1062,15344,6544,4294966650,4294967014,4294967032
390643177,4294966724,15402,4294962121,4294961650,4294965302,3819,3914,14610,4880,4294963483,4294961623,4294964283,5999,1136,15226,6575,4294966706,4294966951,4294967013
390649177,742,15542,4294962112,4294961675,4294965238,3663,4081,14670,4971,4294963365,4294961018,4294964142,6160,1095,15169,6624,4294966918,4294966963,4294967033
390655177,380,15619,4294962161,4294961730,4294965016,3618,4309,14959,4927,4294963357,4294960430,4294963922,6325,994,15193,6642,4294967025,4294967005,4294967029
390661177,4294966933,15701,4294962138,4294961853,4294964713,3514,4548,15299,4873,4294963484,4294960041,4294963822,6549,859,15144,6640,4294967014,4294966963,4294967037
390667177,931,15826,4294962139,4294961911,4294964443,3408,4742,15675,4872,4294963547,4294959751,4294963720,6782,820,15150,6663,4294967059,4294966812,4294967053
390673177,810,15866,4294962097,4294961996,4294964149,3240,4859,16003,4900,4294963630,4294959551,4294963586,6918,794,15147,6601,4294967196,4294966720,4294967093
390679177,4294966068,15912,4294962111,4294962091,4294963914,3081,4922,16174,4929,4294963753,4294959389,4294963365,6985,744,15091,6602,29,4294966672,4294967144
390685177,4294966713,15944,4294962105,4294962154,4294963718,2900,4984,16301,4905,4294963834,4294959317,4294963121,6983,748,15149,6564,139,4294966640,4294967227
390691177,1381,15927,4294962185,4294962145,4294963500,2721,5055,16463,4898,4294963733,4294959307,4294962905,7041,866,15173,6524,273,4294966594,4294967285
390697177,1435,15829,4294962205,4294962304,4294963324,2606,5081,16532,4797,4294963570,4294959464,4294962754,7081,736,15240,6422,381,4294966519,69
390703177,1731,15830,4294962310,4294962287,4294963195,2556,5090,16414,4780,4294963463,4294959714,4294962726,7063,729,15347,6404,435,4294966441,137
390709177,1705,15764,4294962340,4294962342,4294963097,2518,5136,16154,4878,4294963219,4294959844,4294962758,6984,632,15371,6469,512,4294966336,200
390715177,1728,15628,4294962363,4294962210,4294963020,2553,5157,15891,5073,4294962855,4294960011,4294962857,6812,534,15422,6458,552,4294966152,257
390721177,4294966853,15546,4294962435,4294962261,4294963014,2620,5189,15580,5298,4294962695,4294960085,4294962885,6683,620,15542,6461,549,4294965902,322
390727177,35,15589,4294962451,4294962207,4294963012,2712,5253,15342,5497,4294962602,4294960102,4294962958,6414,777,15706,6525,571,4294965720,341
390733177,4294967246,15594,4294962492,4294962181,4294963051,2844,5329,15308,5658,4294962457,4294960145,4294962995,6246,724,15739,6621,596,4294965682,366
390739177,4294965684,15787,4294962552,4294962069,4294963106,2948,5367,15477,5798,4294962376,4294960250,4294963071,6109,519,15770,6550,676,4294965584,387
390745177,4294966406,16066,4294962650,4294962279,4294963215,3013,5409,15717,5879,4294962350,4294960343,4294963146,5959,398,15755,6646,849,4294965471,434
390751177,287,16344,4294962908,4294962293,4294963369,2997,5443,16174,5960,4294962324,4294960371,4294963031,5869,383,15763,6629,1018,4294965377,462
390757177,4294966234,16780,4294963143,4294962510,4294963527,2868,5492,16725,5997,4294962152,4294960458,4294962808,5820,84,15713,6710,1088,4294965202,549
390763177,4294965779,17098,4294963372,4294962655,4294963691,2706,5510,17266,6094,4294962173,4294960439,4294962492,5841,4294967179,15626,6684,1151,4294964973,655
390769177,4294967009,17391,4294963483,4294962880,4294963727,2496,5563,17704,6198,4294962269,4294960327,4294962234,5939,4294966946,15647,6688,1193,4294964742,814
390775177,4294965569,17337,4294963501,4294963039,4294963721,2287,5607,17840,6548,4294962462,4294960085,4294961890,6052,4294966895,15742,6677,1296,4294964505,1041
390781177,4294964952,17196,4294963289,4294963189,4294963547,2142,5704,17754,6691,4294962576,4294959788,4294961717,6216,4294966965,15958,6749,1472,4294964172,1245
390787177,4294964938,16853,4294963055,4294963157,4294963213,2067,5836,17513,7141,4294962804,4294959490,4294961793,6521,4294967043,16267,6733,1755,4294963850,1452
390793177,4294964938,16484,4294962818,4294963191,4294962860,2066,5964,16983,7599,4294962785,4294959028,4294962052,6778,4294966897,16659,6731,2062,4294963601,1719
390799177,4294964930,16194,4294962606,4294963216,4294962538,2199,6056,16176,7940,4294962663,4294958636,4294962394,6747,4294966638,17066,7007,2540,4294963270,1961
390805177,4294964955,15845,4294962549,4294963307,4294962187,2539,6182,15628,8224,4294962624,4294958073,4294962904,6903,4294966546,17453,7466,3150,4294962717,2194
390811177,4294966336,15430,4294962413,4294963230,4294962102,2744,6241,14949,8356,4294962462,4294957485,4294963466,6898,4294966635,17875,7648,3792,4294962226,2423
390817177,4294966042,15086,4294962378,4294963249,4294962367,2877,6271,14386,8312,4294962202,4294956786,4294964045,6985,4294966467,18241,7606,4321,4294961909,2589
390823177,4294967042,14812,4294962525,4294963341,4294962880,2993,6260,13918,8245,4294962238,4294955869,4294964570,6992,4294966433,18550,7630,4849,4294961470,2791
390829177,1729,14658,4294962772,4294963455,4294963513,3131,6188,13731,7823,4294962158,4294955112,4294965106,7063,4294967113,18789,7659,5367,4294960783,2942
390835177,1710,14562,4294962922,4294963671,4294964216,3222,6168,13757,7262,4294962298,4294954678,4294965570,7101,608,18964,7571,5843,4294960356,3116
390841177,1159,14632,4294963052,4294963898,4294964988,3263,6155,13760,6757,4294962517,4294954431,4294965959,7106,1277,19007,7142,6096,4294960159,3389
390847177,1722,14794,4294963182,4294964095,4294965768,3357,6091,13791,6314,4294962701,4294954484,4294966142,6860,1858,18898,6761,6500,4294959992,3665
390853177,1719,15005,4294963339,4294964308,4294966467,3374,6055,13873,5921,4294962761,4294954880,4294966151,6559,2227,18119,6708,6911,4294959974,3885
390859177,4294966268,15240,4294963444,4294964421,4294967033,3351,5998,14151,5729,4294962854,4294955616,4294965895,6125,3182,17488,6163,6843,4294960054,4369
390865177,4294965873,15496,4294963657,4294964444,101,3252,5887,14248,5689,4294963018,4294956652,4294965763,5478,3729,17297,5602,6818,4294960373,4695
390871177,4294966152,15715,4294963613,4294964529,283,3067,5749,14867,5593,4294962965,4294957848,4294965280,5092,4153,17024,5231,6777,4294960756,4722
390877177,4294964940,15969,4294963716,4294964562,239,2868,5616,15231,5748,4294963092,4294959558,4294964925,4603,4480,16794,4787,6765,4294961227,4556
390883177,4294964948,16210,4294963771,4294964502,40,2648,5449,15500,6063,4294963122,4294961115,4294964739,4086,4306,16435,4645,6656,4294961818,4396
390889177,4294964952,16378,4294963751,4294964428,4294966983,2387,5235,15579,6633,4294963223,4294962504,4294964441,3535,4087,16158,4419,6544,4294962382,4324
390895177,4294964944,16504,4294963743,4294964578,4294966600,2116,5026,15748,7150,4294963231,4294963625,4294964023,3080,3958,15655,4167,6328,4294962769,4215
390901177,4294964931,16630,4294963634,4294964535,4294966164,1838,4744,15780,7511,4294963327,4294964562,4294963670,2598,3920,15399,3882,6324,4294963054,4065
390907177,4294965158,16627,4294963454,4294964675,4294965785,1544,4439,16000,8038,4294963584,4294965140,4294963347,2272,4084,15439,3946,6203,4294963390,3845
390913177,4294966060,16659,4294963352,4294964647,4294965478,1201,4100,16144,8637,4294963601,4294965366,4294963241,2064,4237,15153,3732,5962,4294963700,3579
390919177,4294966082,16592,4294963206,4294964572,4294965331,887,3784,16432,9135,4294963687,4294965490,4294963304,1890,4237,14685,3547,5568,4294964142,3340
390925177,733,16662,4294963151,4294964539,4294965328,582,3411,16745,9581,4294963683,4294965259,4294963584,1946,4295,14360,3425,5181,4294964632,3118
390931177,1723,16651,4294963166,4294964590,4294965503,294,3060,16800,9811,4294963616,4294964741,4294963936,2039,4664,14031,3477,4792,4294965043,2921
390937177,1147,16600,4294963181,4294964497,4294965813,45,2680,16876,9841,4294963530,4294964126,4294964211,2097,4920,13756,3516,4232,4294965710,2713
390943177,582,16584,4294963183,4294964461,4294966179,4294967081,2269,16742,9835,4294963487,4294963694,4294964600,2191,5035,13628,3537,3754,4294966251,2492
390949177,1726,16578,4294963221,4294964512,4294966668,4294966886,1848,16614,9868,4294963650,4294963127,4294964948,2193,4957,13408,3390,3334,4294966750,2167
390955177,1574,16607,4294963333,4294964515,4294967022,4294966781,1548,16589,9563,4294963578,4294962677,4294965327,2220,4972,13130,3364,3036,4294967012,1865
390961177,493,16554,4294963354,4294964606,305,4294966688,1134,16465,9180,4294963527,4294962573,4294965757,2238,5308,13052,3284,2569,4294967210,1589
390967177,1540,16522,4294963460,4294964569,916,4294966673,675,16123,8997,4294963441,4294962725,4294966038,1995,5287,13116,3229,1982,194,1372
390973177,1412,16446,4294963623,4294964564,1463,4294966752,271,16109,8582,4294963319,4294963042,4294966368,1762,5779,12782,3292,1511,493,1304
390979177,4294966911,16292,4294963760,4294964584,1905,4294966848,4294967143,15962,8301,4294963166,4294963610,4294966671,1539,4970,12768,3150,1655,1498,1324
390985177,162,16176,4294963850,4294964556,2183,4294966948,4294966790,15564,8117,4294963051,4294964443,4294967026,1157,4195,12995,2537,1342,2154,1076
390991177,1362,16018,4294963892,4294964579,2335,4294967124,4294966472,15160,7956,4294962819,4294965178,4294967174,751,3635,12909,2474,695,2308,701
390997177,419,15907,4294963828,4294964489,2382,18,4294966212,14815,7710,4294962605,4294965885,4294967234,311,3805,12823,2587,228,1901,393
391003177,537,15708,4294963817,4294964380,2384,216,4294965963,14451,7547,4294962529,4294966875,12,4294967102,4004,12535,2577,4294967274,1888,149
391009177,1728,15575,4294963733,4294964335,2292,349,4294965781,14279,7359,4294962627,476,0,4294966611,3710,12665,2511,4294966994,2127,4294967153
391015177,1729,15386,4294963764,4294964351,2198,456,4294965603,14247,7258,4294962656,1346,137,4294966042,3426,12708,2357,4294966693,2288,4294966833
391021177,732,15283,4294963726,4294964364,2099,539,4294965407,14334,7204,4294962821,2107,356,4294965574,3181,12899,2132,4294966529,2352,4294966534
391027177,1720,15133,4294963729,4294964352,1999,507,4294965212,14368,7087,4294962968,2801,545,4294965150,2867,12910,2103,4294966342,2184,4294966337
391033177,1662,15008,4294963677,4294964412,1932,429,4294965015,14297,6960,4294963075,3447,727,4294964752,2752,12931,2132,4294966151,1864,4294966152
391039177,21,14911,4294963590,4294964468,1847,365,4294964836,14354,6874,4294963189,4145,892,4294964391,2895,13109,2242,4294965852,1466,4294965971
391045177,499,14813,4294963556,4294964383,1824,195,4294964665,14367,6816,4294963221,4810,1008,4294964087,2997,13092,2352,4294965614,1317,4294965806
391051177,1339,14736,4294963512,4294964500,1772,22,4294964525,14414,6794,4294963266,5444,1125,4294963815,3020,13107,2485,4294965455,1250,4294965639
391057177,4294967194,14776,4294963493,4294964516,1733,4294967104,4294964378,14470,6791,4294963388,5933,1237,4294963641,2974,13109,2650,4294965434,1242,4294965517
391063177,4294966788,14794,4294963525,4294964488,1735,4294966890,4294964247,14565,6719,4294963303,6316,1370,4294963528,2939,13253,2861,4294965441,1232,4294965362
391069177,957,14796,4294963458,4294964534,1686,4294966654,4294964110,14601,6624,4294963233,6701,1507,4294963441,3004,13542,3094,4294965525,1301,4294965261
391075177,292,14763,4294963421,4294964482,1632,4294966457,4294963981,14626,6561,4294963117,7085,1533,4294963330,3240,13725,3229,4294965491,1443,4294965145
391081177,4294966466,14772,4294963267,4294964471,1505,4294966265,4294963863,14661,6507,4294963020,7464,1490,4294963190,3445,13736,3479,4294965511,1672,4294965151
391087177,599,14759,4294963014,4294964463,1407,4294966082,4294963734,14772,6549,4294963066,7897,1423,4294963011,3406,14144,3628,4294965536,1999,4294965056
391093177,1097,14792,4294962825,4294964445,1290,4294965860,4294963648,14880,6638,4294962916,8325,1425,4294962898,3664,14373,3804,4294965283,2278,4294965037
391099177,4294967188,14844,4294962658,4294964412,1263,4294965679,4294963569,14953,6655,4294962942,8743,1379,4294962765,3617,14359,4103,4294964896,2619,4294965090
391105177,491,15003,4294962629,4294964379,1325,4294965484,4294963454,15066,6794,4294962868,9186,1387,4294962607,3513,14311,4182,4294964533,3044,4294965188
391111177,1215,15194,4294962520,4294964449,1542,4294965321,4294963279,15001,6952,4294962923,9621,1465,4294962473,3432,14437,4418,4294964312,3404,4294965322
391117177,4294966788,15311,4294962432,4294964549,1849,4294965200,4294963073,15022,7218,4294963023,9990,1490,4294962343,3735,14622,4875,4294963889,3674,4294965499
391123177,4294966228,15500,4294962409,4294964519,2328,4294965058,4294962845,15033,7384,4294962961,10282,1570,4294962205,3936,14696,5274,4294963399,4140,4294965644
391129177,423,15516,4294962350,4294964396,2878,4294964994,4294962602,15144,7506,4294963040,10518,1692,4294962191,3425,14912,5319,4294963034,4910,4294965703
391135177,4294967079,15573,4294962326,4294964364,3481,4294964972,4294962372,15198,7542,4294962971,10608,1886,4294962159,2138,15429,5258,4294962696,5898,4294965640
391141177,4294965683,15602,4294962323,4294964231,4078,4294965035,4294962217,15234,7546,4294962935,10538,2095,4294962140,907,15551,5246,4294962392,6496,4294965404
391147177,4294966862,15605,4294962289,4294964132,4667,4294965087,4294962113,15232,7463,4294962803,10363,2313,4294962174,46,15719,5349,4294962042,6805,4294965105
391153177,4294967117,15558,4294962399,4294963850,5219,4294965134,4294962041,15149,7379,4294962639,10139,2632,4294962183,4294966723,15777,5510,4294961687,6989,4294964734
391159177,4294965256,15590,4294962498,4294963841,5655,4294965201,4294962044,14996,7150,4294962317,9800,2866,4294962157,4294966208,16045,5559,4294961353,7107,4294964477
391165177,4294965465,15640,4294962628,4294963639,6019,4294965263,4294962047,14996,6957,4294962083,9533,2970,4294962107,4294965662,16165,5624,4294961035,7145,4294964119
391171177,4294966194,15734,4294962681,4294963630,6283,4294965314,4294962075,15026,6750,4294961976,9258,3086,4294962084,4294965517,16139,5786,4294960582,6900,4294963850
391177177,4294964953,15855,4294962836,4294963618,6458,4294965356,4294962113,15153,6583,4294961973,8941,3265,4294962014,4294965639,15724,5729,4294959989,6638,4294963692
391183177,4294964952,15850,4294962962,4294963676,6514,4294965417,4294962186,15111,6369,4294961887,8739,3464,4294961908,4294966301,15514,5877,4294959509,6067,4294963550
391189177,4294966552,15886,4294963000,4294963645,6433,4294965455,4294962292,15088,6185,4294961829,8632,3645,4294961804,586,13982,5515,4294959018,5481,4294963454
391195177,4294965894,15869,4294963001,4294963607,6233,4294965480,4294962410,15133,6096,4294961842,8608,3779,4294961637,2474,13202,5876,4294958335,5025,4294963865
391201177,4294964939,15897,4294963018,4294963668,5972,4294965463,4294962569,14970,6077,4294961785,8665,3966,4294961432,5501,16147,6397,4294959293,4229,4294964580
391207177,4294965837,15900,4294963059,4294963646,5654,4294965406,4294962734,14937,6009,4294961808,8825,4118,4294961229,8907,19099,7097,4294961251,2908,4294964871
391213177,4294965466,15863,4294962984,4294963617,5314,4294965323,4294962870,14866,6038,4294961846,9109,4212,4294961047,10313,21351,8559,4294962657,2726,4294965246
391219177,4294964943,15874,4294962934,4294963630,4928,4294965201,4294963023,14938,6076,4294961704,9358,4238,4294960832,7110,23442,9482,4294964308,4164,4294965469
391225177,4294964919,15915,4294962897,4294963541,4554,4294965031,4294963176,15048,6050,4294961728,9628,4231,4294960680,895,23479,10224,4294965736,5745,4294965683
391231177,4294965185,16056,4294962940,4294963434,4226,4294964796,4294963301,15426,5951,4294961796,9932,4112,4294960536,4294961521,22671,9578,4294966781,6799,4294965995
391237177,4294964936,16350,4294962976,4294963375,3957,4294964539,4294963443,15846,6005,4294961909,10151,3935,4294960484,4294960404,20392,8753,41,5544,4294966462
391243177,4294964939,16705,4294962940,4294962982,3869,4294964216,4294963546,16208,5888,4294962029,10318,3680,4294960489,4294963897,18526,7259,4294967207,3413,62
391249177,4294965467,17804,4294963385,4294963011,3339,4294964632,4294963648,16698,5893,4294961978,10453,3363,4294960565,1121,17027,5929,4294966380,2402,702
391255177,4294964932,18328,4294962691,4294963181,3454,4294966382,4294963753,17137,5900,4294962148,10528,3035,4294960630,3391,15694,4977,4294965668,3199,739
391261177,4294964937,16624,4294962804,4294962346,4487,4294964633,4294963585,17467,5994,4294962083,10548,2692,4294960715,3008,14412,4832,4294965507,4658,367
391267177,4294967264,18545,4294962880,4294963063,5196,4294963527,4294963459,17571,6139,4294962094,10518,2411,4294960787,1632,13697,5263,4294965902,5398,4294967236
391273177,1725,17998,4294963353,4294962977,4919,4294964171,4294963545,17349,6250,4294961944,10410,2190,4294960781,777,14040,5938,4294966285,5229,4294966976
391279177,1711,17438,4294962928,4294962695,4584,4294964056,4294963612,16900,6400,4294961912,10217,2147,4294960800,773,14947,6429,4294966330,4611,4294966915
391285177,1725,16840,4294962583,4294962563,4703,4294963644,4294963593,16358,6460,4294961977,9960,2299,4294960766,1158,15806,6648,4294966170,3978,4294966951
391291177,1715,16818,4294962595,4294962676,4557,4294963789,4294963636,15579,6554,4294961910,9434,2607,4294960685,1498,16000,6726,4294966024,3667,4294967071
391297177,1722,16190,4294962545,4294962587,3966,4294964553,4294963757,14931,6367,4294962004,8688,2934,4294960664,1567,15776,6741,4294966180,3578,4294967180
391303177,90,15524,4294962239,4294962420,3409,4294964807,4294963840,14415,6027,4294961969,7650,3273,4294960646,1431,15484,6545,4294966868,3551,4294967271
391309177,196,15142,4294962134,4294962385,3184,4294964870,4294963878,14045,5635,4294961948,6515,3714,4294960634,1170,15414,6253,464,3410,4294967243
391315177,4294965609,14963,4294962175,4294962616,3114,4294965011,4294963884,13854,5257,4294961958,5338,4109,4294960644,920,15532,6091,1160,3124,4294967129
391321177,4294964940,14841,4294962236,4294962626,3146,4294965218,4294963848,13853,4860,4294961917,4195,4380,4294960651,613,15666,6051,1523,2693,4294967015
391327177,4294965456,15010,4294962310,4294962802,3400,4294965543,4294963815,13951,4520,4294962026,3235,4544,4294960676,426,15797,6190,1617,2275,4294966983
391333177,4294965631,15200,4294962308,4294962716,3794,4294965972,4294963790,14323,4209,4294962242,2478,4554,4294960678,468,16048,6120,1394,1743,4294967083
391339177,4294964936,15422,4294962366,4294962694,4335,4294966325,4294963757,14621,4063,4294962394,2028,4389,4294960624,826,16173,6130,751,1190,4294967174
391345177,4294965886,15599,4294962361,4294962646,4925,4294966525,4294963722,14952,3850,4294962592,1962,4110,4294960522,1222,16005,6212,4294967179,680,4294967174
391351177,225,15843,4294962425,4294962530,5490,4294966520,4294963712,15403,3845,4294962792,2217,3686,4294960438,1512,15666,6374,4294966406,401,4294967089
391357177,4294966513,16090,4294962498,4294962535,5957,4294966396,4294963706,15862,3978,4294963076,2731,3379,4294960407,1745,15459,6425,4294965900,351,4294966948
391363177,4294965050,16282,4294962521,4294962530,6227,4294966240,4294963671,16155,4188,4294963188,3433,3065,4294960315,1763,15374,6371,4294965658,481,4294966792
391369177,4294964944,16531,4294962497,4294962534,6300,4294966097,4294963660,16238,4370,4294963182,4306,2732,4294960225,1695,15320,6360,4294965509,748,4294966674
391375177,4294964915,16581,4294962442,4294962587,6184,4294965876,4294963651,16325,4660,4294963231,5201,2396,4294960220,1572,15295,6396,4294965637,1138,4294966598
391381177,4294964921,16646,4294962343,4294962566,5864,4294965646,4294963659,16209,4853,4294963182,5989,2033,4294960267,1353,15388,6413,4294965962,1454,4294966602
391387177,4294964968,16565,4294962275,4294962398,5393,4294965382,4294963677,16223,4943,4294962957,6507,1654,4294960452,1068,15361,6415,4294966378,1473,4294966627
391393177,4294966107,16573,4294962052,4294962405,4835,4294965200,4294963666,16098,5001,4294962898,6843,1320,4294960703,1053,15230,6485,4294966736,1347,4294966689
391399177,4294966311,16479,4294961980,4294962306,4237,4294965081,4294963692,15982,5005,4294962785,6807,1019,4294961047,1013,15043,6592,4294967232,1304,4294966760
391405177,803,16235,4294961884,4294962187,3601,4294965013,4294963739,15804,4991,4294962860,6503,767,4294961395,839,14952,6691,458,1259,4294966831
391411177,1720,16173,4294961758,4294962156,3014,4294964954,4294963790,15638,4968,4294962912,5749,594,4294961871,662,14976,6643,857,1090,4294966887
391417177,1733,16027,4294961795,4294962104,2589,4294965016,4294963844,15512,4868,4294962859,4774,441,4294962294,576,15109,6662,1120,774,4294966917
391423177,1717,15908,4294961798,4294962153,2413,4294965144,4294963940,15335,4715,4294962965,3739,297,4294962739,773,15139,6665,1067,429,4294966909
391429177,1720,15886,4294961744,4294962072,2350,4294965257,4294964077,15347,4534,4294963119,2660,228,4294963128,860,15143,6675,929,210,4294966927
391435177,1722,15909,4294961743,4294961982,2369,4294965363,4294964140,15360,4371,4294963174,1632,185,4294963469,889,15078,6752,846,106,4294966943
391441177,1715,15958,4294961764,4294961992,2341,4294965498,4294964264,15403,4197,4294963218,677,179,4294963815,858,15092,6730,835,69,4294966960
391447177,1708,16044,4294961741,4294961887,2502,4294965720,4294964320,15434,4098,4294963328,4294967089,142,4294964094,954,15148,6782,698,130,4294966990
391453177,1700,16142,4294961657,4294961842,2552,4294966028,4294964490,15601,3970,4294963391,4294966379,120,4294964409,998,15154,6704,538,159,4294966987
391459177,392,16203,4294961750,4294961827,2598,4294966140,4294964601,15667,3732,4294963445,4294965863,82,4294964718,1057,15097,6619,402,185,4294967007
391465177,4294965286,16245,4294961824,4294961815,2505,4294966242,4294964673,15669,3610,4294963432,4294965613,4294967292,4294964967,995,15138,6601,314,241,4294966978
391471177,4294966570,16227,4294961863,4294961802,2121,4294966152,4294964774,15716,3485,4294963579,4294965517,4294967224,4294965220,903,15173,6539,306,190,4294966983
391477177,1352,16551,4294961651,4294961949,1857,4294966277,4294964737,15640,3425,4294963582,4294965550,4294967133,4294965511,996,15235,6367,379,93,4294966946
391483177,1728,16205,4294961534,4294962096,1733,4294966861,4294964938,15597,3383,4294963633,4294965645,4294967020,4294965775,1122,15297,6337,482,4294967261,4294966950
391489177,1712,15737,4294961447,4294961934,1353,4294967117,4294965433,15518,3345,4294963648,4294965774,4294966902,4294965996,1062,15304,6321,566,4294967229,4294966964
391495177,1714,15820,4294961422,4294961885,1213,4294967211,4294965617,15422,3354,4294963586,4294965921,4294966817,4294966244,981,15305,6397,557,4294967117,4294966971
391501177,1597,15748,4294961366,4294962001,1191,104,4294965687,15269,3390,4294963678,4294966119,4294966781,4294966493,994,15265,6414,625,4294967030,4294966974
391507177,4294965976,15540,4294961386,4294961931,1064,219,4294965842,15096,3349,4294963600,4294966246,4294966796,4294966739,920,15239,6458,570,4294967008,4294967008
391513177,4294964951,15287,4294961464,4294962003,818,270,4294966154,14920,3336,4294963516,4294966336,4294966809,4294967018,1001,15244,6477,501,4294967008,4294967023
391519177,4294964937,15229,4294961523,4294961935,489,402,4294966482,14775,3240,4294963466,4294966271,4294966827,4294967255,1106,15214,6389,456,4294967015,4294967053
391525177,4294964935,15247,4294961459,4294962025,300,642,4294966681,14621,3189,4294963500,4294966165,4294966875,205,1175,15260,6306,464,4294967076,4294967055
391531177,4294964938,15290,4294961510,4294962042,316,862,4294966797,14442,3169,4294963499,4294966066,4294966956,401,1113,15282,6464,340,4294967173,4294967051
391537177,4294964939,15200,4294961488,4294962175,415,944,4294966879,14285,3201,4294963407,4294965924,4294967035,586,995,15296,6475,208,4294967253,4294967088
391543177,4294965070,15153,4294961517,4294962175,433,962,4294967037,14199,3241,4294963457,4294965762,4294967074,773,1058,15305,6323,124,4294967219,4294967101
391549177,37,15204,4294961522,4294962237,321,964,4294967208,14132,3239,4294963458,4294965596,4294967145,938,1113,15309,6323,38,4294967184,4294967099
391555177,529,15166,4294961473,4294962342,197,949,57,14095,3310,4294963548,4294965484,4294967174,1105,1066,15262,6307,4294967151,4294967170,4294967112
391561177,4294967058,15111,4294961481,4294962149,4294967292,934,277,14141,3358,4294963504,4294965436,4294967169,1265,923,15288,6309,4294966993,4294967132,4294967112
391567177,260,15177,4294961474,4294962194,4294967010,912,484,14224,3400,4294963730,4294965344,4294967143,1476,910,15247,6409,4294966918,4294967031,4294967115
391573177,4294966693,15155,4294961394,4294962263,4294966670,963,653,14187,3326,4294963770,4294965228,4294967108,1624,966,15311,6383,4294966985,4294966916,4294967126
391579177,4294964928,15104,4294961370,4294962257,4294966285,1047,830,14180,3334,4294963858,4294965118,4294967005,1800,1018,15286,6407,4294967044,4294966837,4294967181
391585177,4294964937,15099,4294961373,4294962252,4294965871,1152,1021,14203,3255,4294963803,4294964970,4294966877,2011,1031,15251,6384,4294967112,4294966746,4294967232
391591177,4294964951,15065,4294961347,4294962041,4294965522,1246,1199,14232,3309,4294963821,4294964850,4294966712,2260,972,15163,6380,4294967202,4294966614,4294967285
391597177,4294964934,15058,4294961337,4294962119,4294965322,1373,1379,14268,3354,4294963760,4294964777,4294966547,2458,915,15172,6431,4294967288,4294966522,53
391603177,4294964936,15098,4294961434,4294962070,4294965222,1527,1490,14280,3331,4294963603,4294964751,4294966332,2631,885,15271,6421,4294967230,4294966368,86
391609177,4294964943,15224,4294961537,4294962057,4294965180,1658,1613,14350,3404,4294963627,4294964739,4294966135,2838,990,15161,6490,4294967116,4294966288,106
391615177,4294964927,15256,4294961618,4294962107,4294965190,1744,1765,14453,3471,4294963525,4294964724,4294965902,3021,1016,15283,6448,4294967124,4294966321,158
391621177,4294964923,15359,4294961654,4294962145,4294965169,1895,1906,14564,3559,4294963614,4294964717,4294965721,3187,978,15307,6349,4294967127,4294966313,173
391627177,4294965132,15256,4294961752,4294962275,4294964986,2066,2095,14631,3713,4294963591,4294964720,4294965464,3341,1033,15363,6336,4294967195,4294966304,213
391633177,4294965953,15321,4294961859,4294962314,4294964626,2241,2334,14758,3826,4294963608,4294964770,4294965225,3507,1113,15539,6386,4294967275,4294966283,236
391639177,4294966016,15355,4294961926,4294962286,4294964238,2447,2574,14909,4042,4294963553,4294964835,4294964957,3736,1208,15484,6422,59,4294966283,254
391645177,966,15419,4294961856,4294962316,4294963864,2648,2804,15026,4157,4294963412,4294964780,4294964671,4018,1096,15428,6452,62,4294966332,251
391651177,1722,15588,4294961877,4294962132,4294963555,2764,3030,15238,4274,4294963353,4294964768,4294964291,4263,992,15292,6447,59,4294966284,272
391657177,1728,15730,4294961953,4294962025,4294963269,2912,3223,15471,4381,4294963223,4294964670,4294963915,4520,930,15232,6543,101,4294966213,304
391663177,1723,15923,4294962054,4294961932,4294963058,2969,3443,15727,4475,4294963071,4294964504,4294963562,4815,894,15212,6526,180,4294966136,316
391669177,1707,16200,4294962235,4294961917,4294962604,3346,3665,16060,4613,4294963088,4294964206,4294963246,5127,857,15266,6555,236,4294966072,335
391675177,1719,16106,4294962023,4294962007,4294962517,3341,3804,16222,4636,4294963005,4294963775,4294963023,5445,922,15292,6599,330,4294965996,344
391681177,1714,16262,4294961961,4294962172,4294962672,3155,3889,16444,4589,4294962966,4294963309,4294962778,5737,950,15264,6621,401,4294965872,394
391687177,1715,16286,4294962036,4294962299,4294962738,3099,3971,16857,4546,4294962722,4294963017,4294962538,6134,1000,15317,6579,456,4294965776,390
391693177,1729,16360,4294962010,4294962338,4294962723,3113,4053,16820,4364,4294962993,4294962896,4294962505,6479,1000,15331,6552,493,4294965691,439
391699177,1210,16365,4294962004,4294962441,4294962784,3106,4132,16332,4529,4294963027,4294962343,4294962489,6570,1023,15369,6488,538,4294965586,470
391705177,610,16389,4294961966,4294962359,4294962788,3154,4165,16275,4820,4294962683,4294961953,4294962361,6479,999,15403,6455,588,4294965462,532
391711177,784,16329,4294961996,4294962372,4294962827,3196,4199,16399,4963,4294962476,4294961487,4294962377,6924,983,15479,6496,632,4294965374,518
391717177,4294966182,16299,4294962042,4294962447,4294962897,3157,4233,16207,5118,4294962257,4294960941,4294962601,7259,949,15615,6495,696,4294965241,520
391723177,4294965548,16340,4294962149,4294962593,4294962970,3103,4253,16075,5203,4294962100,4294960342,4294962755,7500,808,15772,6656,716,4294965091,518
391729177,4294967282,16497,4294962255,4294962639,4294963095,3083,4250,16011,5158,4294961967,4294959828,4294962743,7700,649,15916,6682,760,4294964937,526
391735177,4294966884,16637,4294962389,4294962611,4294963296,3002,4212,15941,5143,4294962080,4294959507,4294962732,7786,495,16023,6706,822,4294964738,582
391741177,4294965486,16796,4294962506,4294962535,4294963533,2906,4171,16044,5214,4294962052,4294958903,4294962667,7844,494,16031,6598,865,4294964524,681
391747177,4294966446,17072,4294962601,4294962477,4294963762,2771,4127,16549,5146,4294961717,4294958561,4294962573,8078,456,16028,6492,959,4294964449,876
391753177,4294966304,17232,4294962673,4294962410,4294964028,2597,4106,16981,5016,4294961667,4294958626,4294962509,8441,341,16156,6402,1049,4294964418,1066
391759177,4294964926,17332,4294962782,4294962396,4294964178,2386,4125,16940,5186,4294961684,4294958823,4294962549,8679,147,16294,6205,1227,4294964324,1275
391765177,4294964965,17271,4294962830,4294962529,4294964239,2164,4148,16665,5513,4294961713,4294958987,4294962561,8671,173,16508,6252,1444,4294964084,1459
391771177,4294965633,17106,4294962774,4294962897,4294964254,2045,4200,16197,5981,4294961893,4294959069,4294962521,8632,270,16769,6342,1721,4294963894,1668
391777177,4294964945,16804,4294962802,4294963131,4294964270,2019,4260,15622,6438,4294961985,4294959101,4294962578,8535,240,17036,6407,2072,4294963765,1859
391783177,4294964978,16416,4294962802,4294963314,4294964299,2162,4365,15079,6791,4294962001,4294959140,4294962787,8551,175,17394,6600,2457,4294963649,2012
391789177,4294967200,15863,4294962859,4294963446,4294964324,2402,4542,14460,6967,4294961805,4294959332,4294962965,8643,7,17497,6669,2843,4294963388,2164
391795177,644,15460,4294963048,4294963397,4294964410,2741,4781,13853,7276,4294961745,4294959452,4294963298,8662,51,17714,6745,3313,4294963133,2282
391801177,881,15099,4294963272,4294963205,4294964541,3095,5071,13411,7452,4294961664,4294959186,4294963701,8703,321,17929,6802,3770,4294962814,2464
391807177,1724,14917,4294963525,4294963193,4294964770,3408,5373,13028,7619,4294961609,4294958644,4294964038,8611,450,18175,6921,4161,4294962549,2685
391813177,1735,14702,4294963912,4294963288,4294965049,3773,5692,12861,7269,4294961443,4294958058,4294964314,8529,709,18282,7036,4577,4294962274,2912
391819177,642,14705,4294964283,4294963425,4294965248,3955,6000,12925,7038,4294961497,4294957543,4294964671,8560,1145,18173,7085,5022,4294961960,3167
391825177,230,14733,4294964436,4294963660,4294965573,4029,6226,12869,6810,4294961599,4294957076,4294965005,8501,1589,18021,7184,5435,4294961714,3531
391831177,1078,14762,4294964196,4294963900,4294966270,4067,6415,12958,6531,4294961667,4294956756,4294965075,8281,1801,17855,7139,5828,4294961646,3936
391837177,4294966890,15110,4294963798,4294963698,4294965953,3386,6584,13379,6227,4294961790,4294956556,4294965063,8118,1874,17428,7118,6257,4294961691,4289
391843177,4294965805,15735,4294963847,4294964291,964,3178,6445,13800,5959,4294961773,4294956828,4294964948,7843,2173,17041,7073,6583,4294961662,4621
391849177,4294966222,16018,4294963986,4294964445,1870,3632,6372,14199,5847,4294961814,4294957585,4294964746,7499,2293,16819,6595,6800,4294961697,4939
391855177,4294964941,16013,4294964817,4294964562,1543,3523,6380,14624,5775,4294961908,4294958735,4294964463,7048,2445,16561,6176,7077,4294961686,4945
391861177,4294964929,16649,4294964892,4294964836,109,3548,6572,15061,5976,4294961963,4294960194,4294964074,6597,3054,16263,5996,7172,4294961677,4945
391867177,4294964936,16866,4294964895,4294964700,4294964803,3245,6826,15305,6396,4294962018,4294961605,4294963678,6253,3686,16025,5510,7222,4294961816,4848
391873177,4294964930,16942,4294964806,4294964768,4294963553,3189,6974,15817,6987,4294962053,4294962656,4294963386,5921,4219,15833,5102,7210,4294962012,4619
391879177,4294964946,17357,4294964007,4294964659,4294961728,2708,7046,16123,7462,4294962118,4294963236,4294963264,5726,4558,15788,4940,7132,4294962358,4350
391885177,4294964946,17472,4294964042,4294964692,4294961199,2382,6910,16407,7728,4294962178,4294963299,4294963181,5720,4337,15615,4514,7030,4294962917,4344
391891177,4294964954,17449,4294964098,4294964892,4294961334,2417,6678,16555,8078,4294961979,4294963264,4294963088,5702,3787,15308,4118,6806,4294963446,4346
391897177,4294964948,17443,4294963369,4294964737,4294960799,2412,6426,16693,8292,4294961917,4294963103,4294963187,5678,4061,14944,3842,6504,4294963501,4219
391903177,4294964942,17150,4294963313,4294964654,4294961129,1882,6045,16612,8575,4294962021,4294962572,4294963454,5713,4495,14832,3679,6105,4294963599,3997
391909177,4294965268,17214,4294963169,4294964630,4294961471,1484,5666,16594,8765,4294961954,4294961866,4294963658,5855,4793,14694,3569,5785,4294964171,3766
391915177,4294965653,17698,4294963537,4294964675,4294962365,893,5183,16741,8812,4294962020,4294961169,4294964020,5900,4513,14478,3423,5372,4294964829,3439
391921177,4294966342,17710,4294963501,4294964606,4294963431,540,4773,16856,8741,4294961918,4294960497,4294964685,5997,4451,14184,3280,4684,4294965105,3064
391927177,1720,17599,4294963463,4294964515,4294964119,227,4413,16901,8546,4294961899,4294960020,4294965324,5983,4615,13828,3340,4162,4294965200,2721
391933177,1721,17500,4294963622,4294964524,4294965102,44,3997,16563,8358,4294961876,4294959766,4294965831,5789,4753,14015,3226,3909,4294965558,2327
391939177,1723,17450,4294963726,4294964481,4294965691,23,3630,16558,8148,4294961889,4294959686,4294965959,5551,4958,13591,3168,3604,4294965872,1974
391945177,1718,17459,4294963822,4294964475,4294966537,4294966973,3217,16237,7955,4294961871,4294960059,4294966338,5107,5275,13590,3084,3155,4294965974,1561
391951177,1723,17335,4294964162,4294964507,178,4294966981,2846,15992,7724,4294961879,4294960337,4294966410,4715,5936,13465,3204,2716,4294966052,1293
391957177,380,16897,4294963959,4294964448,537,4294967062,2579,15852,7730,4294962132,4294960985,4294966377,4167,6438,13364,3270,2240,4294966522,1212
391963177,4294966908,16987,4294964269,4294964552,1084,4294966821,2218,15880,7860,4294962302,4294961791,4294966490,3556,6740,13402,3580,1796,4294967037,1228
391969177,1136,16686,4294964271,4294964467,1454,4294966841,1968,15745,7933,4294962507,4294962550,4294966507,3154,6009,13234,3602,1667,634,1020
391975177,600,16576,4294964278,4294964453,1832,4294966917,1677,15534,7954,4294962443,4294963438,4294966378,2685,4986,13017,3294,1553,1509,837
391981177,4294966396,16406,4294964274,4294964394,2152,4294966970,1349,15482,8178,4294962202,4294964044,4294966214,2266,3837,13133,3066,1496,2165,512
391987177,4294967255,16262,4294964266,4294964381,2518,4294967047,1069,15513,8219,4294962143,4294964671,4294966523,1784,3114,13362,3010,1135,2196,179
391993177,93,16027,4294964365,4294964441,2867,4294967233,781,15154,8214,4294962074,4294965153,4294966751,1271,2989,13112,2853,632,1964,4294967193
391999177,4294965942,15815,4294964408,4294964281,3092,62,523,15152,8254,4294962150,4294965877,4294966826,705,3092,12681,2632,290,1793,4294966895
392005177,4294967069,15610,4294964470,4294964402,3214,209,306,14919,8229,4294962533,4294966409,170,142,2890,12895,2443,41,1897,4294966642
392011177,1715,15390,4294964463,4294964417,3244,323,114,14735,8150,4294962622,4294966786,484,4294966867,2547,13044,2268,4294966916,2088,4294966364
392017177,1084,15203,4294964550,4294964336,3160,402,4294967275,14575,8088,4294962640,225,784,4294966186,2252,13033,2073,4294966431,2039,4294966110
392023177,1039,15004,4294964524,4294964352,2965,407,4294967150,14585,7980,4294962633,1165,1077,4294965428,2252,12870,2084,4294966031,1762,4294965884
392029177,1720,14941,4294964593,4294964351,2795,480,4294967039,14533,7997,4294962658,2199,1300,4294964699,2461,13052,2306,4294965754,1608,4294965668
392035177,1730,14796,4294964660,4294964421,2532,484,4294966919,14591,8099,4294962765,3171,1509,4294964099,2442,13081,2328,4294965493,1551,4294965391
392041177,1113,14696,4294964701,4294964515,2278,491,4294966848,14817,8135,4294962710,3952,1677,4294963623,2296,13102,2452,4294965157,1598,4294965116
392047177,1715,14664,4294964745,4294964643,2036,547,4294966762,14852,8147,4294962695,4612,1982,4294963256,2046,13014,2425,4294964913,1636,4294964791
392053177,1720,14696,4294964707,4294964609,1789,577,4294966698,14878,8106,4294962790,5317,1998,4294962979,1933,13081,2694,4294964769,1611,4294964509
392059177,1346,14692,4294964709,4294964544,1458,543,4294966627,14970,8211,4294962901,5925,1963,4294962775,2114,13126,2895,4294964691,1593,4294964273
392065177,1567,14776,4294964687,4294964519,1161,451,4294966546,15010,8216,4294962874,6386,1855,4294962603,2305,13258,3049,4294964671,1645,4294964031
392071177,1714,14949,4294964633,4294964588,903,310,4294966445,15172,8219,4294962802,6731,1683,4294962483,2427,13440,3205,4294964498,1819,4294963788
392077177,603,15081,4294964573,4294964632,686,115,4294966314,15208,8227,4294962872,6969,1655,4294962354,2449,13761,3335,4294964237,2072,4294963608
392083177,89,15194,4294964344,4294964795,495,4294967220,4294966147,15376,8260,4294963018,7129,1491,4294962160,2341,14049,3378,4294963903,2379,4294963489
392089177,1723,15203,4294964127,4294964873,325,4294967056,4294965985,15526,8199,4294963007,7405,1323,4294961965,2438,14262,3401,4294963529,2550,4294963458
392095177,1625,15253,4294963924,4294964956,229,4294966901,4294965843,15536,8033,4294963111,7967,1420,4294961737,2481,14656,3615,4294963046,2681,4294963494
392101177,308,15294,4294963810,4294964807,270,4294966753,4294965703,15559,7948,4294963174,8626,1549,4294961521,1755,15214,3792,4294962561,3166,4294963676
392107177,1193,15263,4294963649,4294964763,397,4294966627,4294965545,15377,7881,4294963037,9201,1716,4294961233,1309,14971,4217,4294962019,3251,4294963993
392113177,986,15265,4294963605,4294964669,628,4294966460,4294965386,15225,7662,4294962815,9770,1860,4294960990,3537,14132,4854,4294961274,2469,4294964278
392119177,4294966260,15292,4294963624,4294964555,935,4294966306,4294965196,15023,7366,4294962678,10233,1977,4294960700,6940,14598,4989,4294960757,1918,4294964496
392125177,4294966767,15262,4294963664,4294964630,1324,4294966188,4294965041,14818,6999,4294962404,10662,1996,4294960432,7332,16192,4574,4294960812,2840,4294964318
392131177,206,15391,4294963648,4294964778,1779,4294966106,4294964885,14530,6754,4294962223,11173,1952,4294960183,4729,16981,4033,4294961056,4511,4294963892
392137177,4294965043,15415,4294963712,4294964846,2210,4294966092,4294964729,14506,6549,4294961933,11679,1689,4294959964,2217,16347,3874,4294961176,5374,4294963618
392143177,4294964923,15499,4294963685,4294964837,2711,4294966032,4294964610,14577,6519,4294961767,11926,1647,4294959696,1723,16226,4143,4294961117,5255,4294963715
392149177,4294965061,15567,4294963612,4294964889,3215,4294966033,4294964506,14574,6402,4294961772,12210,1579,4294959442,2005,16882,4498,4294961321,5111,4294964005
392155177,4294964941,15663,4294963677,4294964842,3621,4294966022,4294964401,14624,6326,4294961652,12382,1780,4294959131,1683,17555,4855,4294961657,5424,4294964128
392161177,4294964938,16161,4294963860,4294964692,3862,4294966079,4294964340,14646,6163,4294961518,13034,1645,4294958807,1342,17070,5480,4294961534,5956,4294963943
392167177,4294964954,18521,4294963557,4294965006,3905,260,4294964377,14853,6146,4294961593,13825,1713,4294958444,1714,15723,6309,4294961137,6324,4294963910
392173177,4294964945,15321,4294962437,4294964516,5189,2566,4294964385,14983,6303,4294961687,14458,1798,4294958163,2952,14167,7214,4294960889,6402,4294964248
392179177,4294964945,15024,4294963003,4294964394,7585,392,4294963817,15096,6441,4294961564,14791,1917,4294958028,3595,15560,8191,4294961730,6383,4294964704
392185177,4294964934,16620,4294963219,4294964895,8455,4294967097,4294963677,15166,6574,4294961628,14805,1962,4294957902,5427,17984,9221,4294962863,5328,4294965035
392191177,4294964938,16522,4294963712,4294965125,8518,1307,4294963764,15277,6604,4294961584,14585,2048,4294957797,5978,18706,9169,4294963571,4991,4294965164
392197177,4294964951,16650,4294964028,4294964787,7965,905,4294963783,15181,6440,4294961236,14228,2243,4294957678,3132,20270,8822,4294964107,5796,4294965507
392203177,4294964924,16383,4294964062,4294965085,8437,1884,4294963801,15165,6305,4294960902,13763,2244,4294957660,4294966489,20758,8230,4294965068,6482,4294965594
392209177,4294966000,16825,4294963834,4294964288,6820,140,4294963803,15392,6128,4294960745,13088,2348,4294957656,4294964374,20744,7681,4294966075,6204,4294965826
392215177,4294965164,16937,4294964498,4294964481,5957,411,4294963912,15698,6043,4294960697,12241,2345,4294957774,4294964674,20586,7015,4294966710,5162,4294966238
392221177,4294964930,16814,4294964146,4294964301,4824,490,4294964008,16143,5807,4294960888,11435,2749,4294957935,4294966100,20053,6075,4294966697,4348,4294966751
392227177,4294966490,17226,4294964030,4294964129,4307,4294967104,4294963971,16762,5159,4294960702,10943,3410,4294957942,4294967115,19215,4799,4294966266,3994,4294967132
392233177,178,17374,4294963998,4294963841,3839,4294966367,4294963916,16805,4936,4294960950,11677,3964,4294957772,59,18158,4129,4294965940,3858,44
392239177,4294966100,17260,4294963946,4294963790,3675,4294965559,4294963781,16807,5282,4294961183,11711,4160,4294957798,548,16717,4326,4294965795,3409,102
392245177,59,15786,4294963981,4294963379,3609,4294963743,4294963631,16804,5505,4294961343,11232,4242,4294957924,1156,15558,5007,4294965862,2847,113
392251177,1682,18639,4294964691,4294963950,2561,4294961823,4294963420,16835,5648,4294961426,10555,4289,4294958066,1448,14927,5529,4294965913,2515,219
392257177,757,17271,4294964171,4294963293,976,4294962029,4294963658,16789,5819,4294961475,9814,4685,4294958135,1501,14648,6241,4294965729,2271,208
392263177,4294967226,17368,4294964416,4294962954,33,4294960718,4294963630,16284,6104,4294961589,8691,5163,4294958320,1609,14493,6739,4294965544,2059,168
392269177,1302,17329,4294964282,4294963032,4294965317,4294961560,4294963981,15815,6120,4294961748,7164,5552,4294958559,1882,14431,7123,4294965491,1903,150
392275177,261,17669,4294963154,4294963641,4294965214,4294965952,4294964202,15145,5779,4294961922,6054,5874,4294958770,2283,14504,7127,4294965732,1908,98
392281177,4294965778,13211,4294962066,4294961778,4294966445,4294964169,4294963994,14644,5534,4294962018,5284,6081,4294958938,2278,14806,6901,4294966173,2196,7
392287177,32,15617,4294962218,4294963195,1806,4294962804,4294963578,14187,5265,4294962222,4598,6267,4294959036,1898,15098,6622,4294966715,2504,4294967144
392293177,634,14966,4294962763,4294963266,2766,4294965203,4294963656,13921,4929,4294962253,3840,6496,4294959119,1327,15303,6507,4294967215,2685,4294967028
392299177,4294966262,15482,4294962633,4294963395,3300,4294966496,4294963584,13765,4533,4294962315,3115,6720,4294959127,868,15572,6412,266,2643,4294966983
392305177,4294967062,14231,4294962720,4294963184,3168,329,4294963604,13696,4117,4294962384,2440,6968,4294959143,857,15865,6216,507,2429,4294967059
392311177,1462,13870,4294962463,4294962762,3168,4294966312,4294963392,13722,3764,4294962339,1880,7041,4294959148,1093,16093,6208,350,2087,4294967203
392317177,392,14911,4294961990,4294962864,3532,4294965597,4294963170,13894,3342,4294962427,1528,6952,4294959141,1279,16111,6174,4294967281,1839,4294967294
392323177,4294966999,15527,4294961745,4294962991,3909,4294966545,4294962953,14101,3079,4294962610,1404,6745,4294959143,1415,16056,5996,4294966861,1643,4294967281
392329177,712,15761,4294961477,4294962866,4039,346,4294962803,14401,2862,4294962845,1478,6411,4294959097,1665,15785,6022,4294966483,1418,4294967186
392335177,4294966671,15544,4294961149,4294962843,4201,646,4294962578,14742,2702,4294963059,1866,5950,4294959011,1907,15883,5990,4294966336,1429,4294967110
392341177,4294964931,15406,4294961069,4294962961,4428,4294967048,4294962409,15167,2741,4294963293,2470,5481,4294958986,1749,15658,6062,4294966006,1609,4294966974
392347177,4294965092,15659,4294961070,4294963093,4346,4294965714,4294962309,15511,2941,4294963491,3254,5004,4294958986,1830,15757,6079,4294965894,1567,4294966810
392353177,4294964933,16196,4294961102,4294963212,3965,4294964634,4294962261,15819,3159,4294963610,4091,4501,4294959085,1721,15558,6142,4294965753,1751,4294966687
392359177,4294964918,16781,4294961121,4294963034,3457,4294964040,4294962271,16013,3435,4294963685,5043,3918,4294959282,1533,15330,6353,4294965828,1907,4294966636
392365177,4294964938,17053,4294961094,4294962880,3081,4294963904,4294962306,16200,3656,4294963592,5896,3340,4294959505,1478,15206,6332,4294966165,1951,4294966631
392371177,4294964934,17058,4294960963,4294962567,2845,4294963937,4294962286,16274,3902,4294963588,6601,2779,4294959810,1380,15183,6458,4294966628,2029,4294966685
392377177,4294964936,16882,4294960708,4294962449,2787,4294963931,4294962250,16241,4081,4294963578,7152,2253,4294960143,1164,15137,6477,4294967110,2022,4294966714
392383177,4294964926,16646,4294960557,4294962261,2774,4294963848,4294962268,16158,4210,4294963448,7464,1801,4294960536,1088,15181,6386,168,1819,4294966725
392389177,358,16532,4294960451,4294962092,2744,4294963762,4294962348,16045,4252,4294963401,7440,1376,4294960967,1045,15115,6441,597,1533,4294966726
392395177,1718,16504,4294960456,4294962026,2747,4294963812,4294962495,15972,4208,4294963373,7111,1025,4294961474,867,15234,6433,958,1261,4294966752
392401177,1728,16530,4294960356,4294962015,2842,4294963947,4294962719,15882,4077,4294963375,6558,739,4294962035,917,15263,6497,1159,906,4294966755
392407177,1704,16580,4294960324,4294962183,3025,4294964285,4294962944,15773,3980,4294963364,5742,505,4294962613,925,15314,6480,1346,652,4294966786
392413177,1716,16607,4294960369,4294962327,3412,4294964696,4294963188,15762,3829,4294963418,4791,350,4294963143,1011,15355,6473,1215,397,4294966783
392419177,1710,16740,4294960375,4294962428,3744,4294965096,4294963457,15813,3655,4294963400,3725,193,4294963680,924,15436,6503,844,279,4294966779
392425177,1709,16929,4294960355,4294962480,4340,4294965594,4294963557,15851,3481,4294963400,2626,120,4294964225,919,15389,6470,409,249,4294966781
392431177,1718,16745,4294960372,4294962446,4583,4294965910,4294963924,15894,3340,4294963398,1592,114,4294964743,907,15088,6566,240,296,4294966825
392437177,1716,16992,4294960510,4294962352,4081,4294966079,4294964477,15911,3266,4294963358,642,139,4294965234,990,14973,6591,415,256,4294966865
392443177,1712,17228,4294960191,4294962569,4239,4294966647,4294964261,15980,3134,4294963516,4294967109,142,4294965704,1133,14970,6600,730,284,4294966852
392449177,1718,16544,4294960120,4294962444,3982,4294967133,4294964926,15933,2993,4294963419,4294966436,158,4294966114,1234,14992,6547,939,385,4294966859
392455177,1732,16536,4294960082,4294962563,3606,4294967171,4294965375,15822,2834,4294963433,4294965985,121,4294966525,1085,14990,6484,1006,533,4294966914
392461177,1707,16757,4294959959,4294962648,3410,12,4294965438,15827,2789,4294963375,4294965637,131,4294966891,1001,15096,6512,844,431,4294966923
392467177,1730,16678,4294959932,4294962646,3231,207,4294965473,15706,2702,4294963347,4294965380,222,4294967236,1029,15112,6512,624,209,4294966929
392473177,4294966137,16352,4294959994,4294962576,2903,278,4294965667,15542,2697,4294963405,4294965230,203,293,1154,15046,6542,565,54,4294966928
392479177,4294964932,15997,4294960052,4294962489,2438,292,4294966018,15453,2691,4294963389,4294965152,202,674,1152,15056,6446,556,4294967285,4294966938
392485177,4294964947,15700,4294960001,4294962502,2262,455,4294966306,15236,2672,4294963446,4294965139,269,1021,1131,15126,6443,588,88,4294966978
392491177,4294964923,15326,4294960138,4294962436,2233,636,4294966697,15049,2696,4294963415,4294965144,319,1344,1089,15199,6346,684,157,4294967008
392497177,4294964944,15291,4294960320,4294962418,2135,541,4294966965,14777,2668,4294963337,4294965139,354,1680,1166,15311,6251,756,82,4294967027
392503177,4294964948,15376,4294960552,4294962497,2029,381,4294967066,14703,2724,4294963276,4294965085,407,1995,1088,15371,6230,683,52,4294967059
392509177,4294965099,15502,4294960749,4294962573,1753,204,4294967152,14589,2822,4294963278,4294964958,453,2293,1136,15434,6190,490,18,4294967066
392515177,4294965111,15463,4294960862,4294962831,1140,219,82,14506,2846,4294963191,4294964792,471,2598,1050,15429,6136,272,4294967266,4294967082
392521177,4294965080,15266,4294960851,4294962892,508,278,446,14409,2884,4294963034,4294964605,566,2816,1131,15425,6217,60,4294967155,4294967066
392527177,33,15117,4294960751,4294963172,4294967238,504,755,14331,2870,4294963013,4294964441,593,3074,1227,15363,6247,4294967221,4294967099,4294967104
392533177,1409,15126,4294960663,4294963208,4294966604,678,1130,14346,2925,4294963161,4294964268,511,3332,1210,15293,6317,4294967179,4294967129,4294967092
392539177,540,15144,4294960490,4294963292,4294965907,796,1505,14289,3007,4294963292,4294964036,393,3661,1068,15318,6278,4294967181,4294967109,4294967111
392545177,681,15179,4294960417,4294963180,4294965297,883,1801,14283,2998,4294963142,4294963832,202,4025,1129,15399,6168,4294967135,4294967051,4294967136
392551177,927,15230,4294960392,4294963231,4294964998,1045,2034,14269,3171,4294963140,4294963638,26,4384,1217,15382,6155,4294967045,4294966994,4294967124
392557177,4294965873,15238,4294960284,4294963225,4294965008,1273,2218,14204,3308,4294963056,4294963432,4294967160,4620,1230,15458,6108,4294966957,4294966950,4294967142
392563177,4294964934,15272,4294960266,4294963081,4294965243,1517,2427,14217,3494,4294962998,4294963325,4294966996,4821,1076,15398,6167,4294966916,4294966961,4294967161
392569177,4294964943,15392,4294960348,4294963098,4294965502,1819,2683,14175,3620,4294962945,4294963305,4294966761,5015,1012,15404,6245,4294967082,4294966949,4294967192
392575177,4294964935,15380,4294960434,4294963149,4294965751,2060,2892,14136,3746,4294962961,4294963368,4294966452,5210,1086,15387,6286,4294967212,4294966895,4294967279
392581177,4294964928,15541,4294960541,4294963023,4294965965,2275,3099,14181,3789,4294962948,4294963476,4294966118,5391,1185,15369,6408,4294967272,4294966877,20
392587177,4294964952,15684,4294960736,4294963035,4294966065,2442,3359,14180,3999,4294962968,4294963531,4294965754,5608,1093,15244,6396,4294967278,4294966888,53
392593177,4294964923,15813,4294960957,4294962963,4294965887,2626,3585,14260,3998,4294962876,4294963439,4294965371,5865,1061,15223,6380,4294967256,4294966856,82
392599177,4294964927,15973,4294961149,4294962881,4294965647,2857,3839,14370,4056,4294962948,4294963349,4294964958,6142,1019,15088,6371,4294967136,4294966707,87
392605177,4294964920,16049,4294961369,4294962729,4294965382,3079,4164,14501,4122,4294962911,4294963229,4294964475,6403,950,15080,6495,4294967164,4294966646,168
392611177,4294965376,16135,4294961513,4294962831,4294965050,3254,4542,14969,4236,4294962554,4294963182,4294964012,6733,901,15149,6451,4294967170,4294966595,246
392617177,4294966573,16250,4294961580,4294962839,4294964696,3433,4928,15037,4074,4294962657,4294963406,4294963609,7216,867,15221,6408,4294967248,4294966534,340
392623177,1674,16407,4294961673,4294962842,4294964380,3588,5294,14528,4382,4294963012,4294962976,4294963161,7326,874,15278,6449,67,4294966432,458
392629177,1706,16515,4294961537,4294962922,4294964087,3722,5686,14849,4700,4294962585,4294962754,4294962546,7259,778,15280,6395,63,4294966269,596
392635177,1707,16499,4294961409,4294963075,4294963897,3954,6018,15283,4906,4294962570,4294962475,4294962077,8063,736,15272,6367,4294967283,4294966102,735
392641177,1726,16359,4294961190,4294963104,4294963696,4175,6374,15100,4833,4294962451,4294962023,4294961877,8280,757,15263,6403,4294967219,4294965936,889
392647177,1722,16273,4294961119,4294963147,4294963506,4387,6708,15679,5953,4294962734,4294961271,4294961743,8597,765,15129,6495,4294967078,4294965811,1074
392653177,1719,16244,4294960941,4294963267,4294963364,4609,7049,15894,6355,4294962547,4294958067,4294962399,9339,895,15137,6501,4294967186,4294965675,1244
392659177,115,16244,4294960991,4294963220,4294963261,4764,7305,15738,7084,4294962541,4294954039,4294962813,9878,641,15260,6793,4294967221,4294965552,1432
392665177,4294967029,16313,4294960998,4294963260,4294963222,4914,7491,16077,6713,4294962473,4294949562,4294963746,10648,98,15306,6948,39,4294965465,1626
392671177,606,16307,4294960948,4294963345,4294963198,4987,7601,16422,5913,4294961853,4294947009,4294964080,11209,4294967033,15391,7154,240,4294965310,1777
392677177,4294966806,16419,4294961020,4294963412,4294963204,5021,7673,16693,5289,4294961871,4294945873,4294965021,11500,4294967234,15585,7299,442,4294964928,1861
